0,1,2,3,4,5,6,7,8,9,10,11,12,13,14,15,16,17,18,19,20,21,22,23,24,25,26,27,28,29,30,31,32,33,34,35,36,37,38,39,40,41,42,43,44,45,46,47,48,49,50,51,52,53,54,55,Gesture
20.95,4.775,4.3,7.225,12.65,18.25,66.925,28.15,1478.0,302.0,291.0,482.0,840.0,1013.0,4447.0,1853.0,19.0,14.0,18.0,18.0,16.0,16.0,19.0,18.0,-0.8734587212388464,-0.7360326285997307,-0.561899927599697,-0.4625143056361974,-0.7643015467949362,-0.504368318304623,-0.42359037760758717,-0.35345327816570926,-0.3987481744593766,0.019224069131662164,0.028853188754111553,-0.29425466258264266,-0.5323602962128232,-0.27754617438434753,-0.21394847591513166,-0.3464954456354142,-0.5709224987844885,-0.2692388723814691,-0.28115459600968806,-0.3658896070544751,-0.29284409023071506,-0.3978298494043094,-0.3204235977493369,-0.30778768377164795,-0.5693966273152391,-0.25843437500746513,-0.22392024313421732,-0.2689787167517107,-0.6684567858689721,-0.46294298694082403,-0.3998167994158164,-0.26620655051544656,0
22.15,4.125,4.95,12.3,12.5,19.0,65.675,28.175,1559.0,265.0,339.0,853.0,832.0,1127.0,3995.0,1929.0,20.0,19.0,17.0,22.0,22.0,16.0,19.0,22.0,-0.7638457768398067,-0.5270382867268345,-0.7322836276936842,-0.2924781715071876,-0.7358666314665663,-0.6250930801992711,-0.46050736722453517,-0.28370859276653393,-0.5966744048860244,-0.4032696984013672,-0.01999970406232959,-0.0924656924898291,-0.7665562074369456,-0.6965478184502696,-0.22883457701365045,-0.20144215317478362,-0.9413942867001067,-0.7499477532171761,-0.36021717755999305,-0.3027456644164921,-0.30776262285410316,-0.4276883428682692,-0.2200033625473988,-0.20402582378582143,-0.42511004497203037,-0.25887050996603067,-0.2748782913288083,-0.015575623818678833,-0.6418990125738858,-0.2280162818188515,-0.26086361527783936,-0.14755628106315802,0
20.825,3.85,4.75,12.2,15.475,17.85,65.1,27.35,1373.0,247.0,307.0,837.0,1089.0,1161.0,4070.0,1991.0,17.0,14.0,16.0,18.0,23.0,19.0,16.0,17.0,-0.6429333639076164,-0.4230780027912897,-0.2937240311114128,-0.11808058608818313,-0.27078476779266863,-0.11938230236050307,-0.12157260100746389,-0.17463903445469556,-0.3220846645522007,-0.1064404457484339,0.004308219835470701,0.027238261984277562,-0.7012534958907203,-0.5667722651698288,-0.19779676834777765,-0.2043558635060409,-0.7467761559096184,-0.48099017364650026,-0.46583708897502185,-0.47931652340175834,-0.40756102682933615,-0.44285182321854294,-0.32342371693557515,-0.4114757120747816,-0.5099052471328606,-0.42193790644815005,-0.23493991831811684,-0.13150820092277993,-0.7330866049128397,-0.7788202965553986,-0.5426595249650294,-0.416190882861422,0
25.525,3.425,3.725,7.35,12.475,19.4,63.55,27.15,1689.0,213.0,243.0,429.0,893.0,1192.0,3761.0,1639.0,21.0,17.0,18.0,17.0,18.0,17.0,16.0,17.0,-0.7362903221054194,-0.5515926066610626,-0.4201601974953125,-0.3902101482639287,-0.10574082620219573,-0.42447252682240694,-0.08878968356181317,-0.24800959080772558,-0.2652562729383262,-0.2311821062734642,-0.18752967256485512,-0.19524232616941276,-0.28968031023994323,-0.30256867939726806,-0.5062877950050464,-0.31929697931058204,-0.6543797979549566,-0.43910748607986677,-0.4037167477217855,-0.22895851041234894,-0.21723680936120413,-0.5444488348142071,-0.23689472091947564,-0.33677399672584696,-0.33785280981511634,-0.52695208525045,-0.10022532772068087,-0.2040151461053637,-0.32727556567071603,-0.5910020208690169,-0.23546182272309582,-0.269681643222542,0
26.25,3.75,3.825,7.925,13.525,19.95,59.125,23.225,1764.0,243.0,234.0,495.0,856.0,1298.0,3966.0,1445.0,18.0,16.0,17.0,17.0,19.0,13.0,20.0,16.0,-0.699673083015926,-0.5198489061883554,-0.34438525748504784,-0.35501179522127835,-0.2270688694605865,-0.09716486364223052,-0.3808644284737368,0.09168972571640831,-0.35674170535378275,0.010946510938183652,-0.2031325054801362,-0.06364716602874336,-0.2701590915363603,-0.20914107905080315,-0.20684466552306258,0.25625907574890994,-0.45076737434691366,-0.4062232808924389,-0.21909910935300625,0.06860594632058589,-0.264488214247713,-0.28060161965487534,-0.33578625388724925,-0.09802543244158979,-0.501914099567798,-0.11323165392683342,-0.1454004976037749,-0.17869492627768382,-0.36385009845389465,-0.38092100946019486,-0.5021539363898776,-0.04704098447990924,0
20.225,2.375,3.425,7.4,10.225,13.075,47.7,20.025,1399.0,129.0,215.0,493.0,729.0,841.0,3011.0,1249.0,21.0,11.0,16.0,20.0,18.0,18.0,18.0,16.0,-0.7757744510235106,-0.6451743469939947,-0.4693337778248527,-0.30713691756260586,-0.05289247620819917,-0.009670655499999013,-0.17862259091479793,0.07150010864336052,-0.46421287187216187,-0.11537870860951704,-0.17086054941968792,-0.05288124534787642,-0.39022094396216356,-0.12467474536413978,-0.23258191280703855,-0.16167194152736492,-0.5598194175933973,-0.4058433328538618,-0.28054166483209014,-0.4099450567279265,-0.42669338363310727,-0.30331580376223255,-0.26891175455716504,-0.21808727491420485,-0.5134025958008254,-0.5816330582463468,-0.18095314890654252,-0.30823450675580594,-0.44168800756281273,-0.4129294519785561,-0.48022550868458164,0.07395954514166236,0
18.275,2.9,4.25,9.7,8.8,15.05,45.275,18.65,1115.0,148.0,299.0,650.0,595.0,811.0,2875.0,1177.0,17.0,14.0,13.0,17.0,19.0,14.0,21.0,17.0,-0.6852854335224932,-0.5169688244833072,-0.4572829770805783,-0.33630627178215355,-0.033671397290200696,-0.008349190762248238,0.01043460811754849,-0.15731959121825967,-0.3753110868099738,-0.1653804366576368,-0.09382464674058073,-0.10572252670028995,-0.3687706581481463,-0.4155314698039052,-0.30113983650604464,-0.35298539309318694,-0.5886888358309712,-0.13541564229670233,-0.3293537376875988,-0.47573525268367606,-0.2611330843740124,-0.3462683346872592,-0.5036220939466427,-0.40993181112770977,-0.5174791109061786,-0.38781613344129723,-0.3236454260308788,-0.17480159740090948,-0.3248392956915736,-0.18794228937848806,-0.2888390812554128,-0.22849604776776947,0
17.775,2.725,3.0,6.325,7.5,11.3,50.225,21.45,1155.0,177.0,179.0,416.0,429.0,664.0,3291.0,1468.0,16.0,16.0,12.0,21.0,17.0,16.0,20.0,22.0,-0.5769020595450107,-0.4805857749582903,-0.3401295748210119,-0.1475641877939537,-0.37469190070007286,-0.20897297293573197,-0.17359639356057854,-0.408898181677563,-0.36358925240025514,-0.1893083020723581,-0.09296274834366688,-0.13646802821636358,-0.49699354186092753,-0.4325905632922951,-0.20134742709291623,-0.20279076157468695,-0.31399540441516577,-0.46512286705257644,-0.386142722190695,-0.09253784907465074,-0.306892669274654,-0.46178259711951963,-0.38904710139397547,-0.43327410972649644,-0.6143489705013445,-0.4513304249259834,-0.3881552849275722,-0.19570436357965776,-0.6913580332074047,-0.37603348999519254,-0.1258268967694505,-0.10109401007666431,0
22.425,2.2,2.9,7.275,7.975,9.975,43.7,17.75,1633.0,136.0,169.0,450.0,489.0,599.0,2996.0,1161.0,19.0,15.0,16.0,15.0,19.0,14.0,23.0,17.0,-0.6739809578132787,-0.5351927001820324,-0.4712050838888638,-0.2205674317542719,-0.2887586777926602,-0.23882388206845562,0.0994466857410821,-0.12340043959397154,-0.3031744764007437,-0.44347718530569064,-0.18065206463189298,-0.29061018397498334,-0.48682038008768336,-0.4938336541577121,-0.3346370531639283,-0.36967433398612937,-0.5442924538486751,-0.3670541932298454,-0.5421437871056367,-0.2268390137698103,-0.2874849889259121,-0.2715194789937489,-0.3234118084629927,-0.1811691565650047,-0.7005792296723532,-0.6559878285634356,-0.4541738279778215,-0.41317535665467003,-0.38649569055872374,-0.2520006588706716,-0.11684164222077019,-0.1626860896648823,0
19.6,2.1,3.25,6.875,8.75,8.3,32.125,14.25,1272.0,128.0,196.0,429.0,628.0,473.0,2127.0,852.0,19.0,12.0,17.0,17.0,19.0,14.0,20.0,14.0,-0.5598278709346752,-0.5003092830951227,-0.3540735469344481,-0.16112903661740982,-0.3386832329776571,-0.07106906355706402,-0.14709340357690154,-0.325138010298258,-0.2896339577841224,-0.33409400969240155,-0.044217844239028525,-0.24111084653359044,-0.408552679283002,-0.15572775215922383,-0.12084321300297594,-0.2480557101711967,-0.6152795866099776,-0.4598401158349895,-0.4720614030306988,-0.3520778707255636,-0.2832716369956373,-0.4216393817205701,-0.45340483772602047,-0.44688452111816573,-0.6747859757791502,-0.6177111776531948,-0.5571494078117977,-0.5694710266447903,-0.3429004149039372,-0.23864494045959153,-0.1990468873624888,-0.19367541600081525,0
17.475,2.3,2.55,5.925,10.125,7.775,31.375,12.15,1253.0,148.0,129.0,341.0,699.0,499.0,2193.0,786.0,23.0,19.0,9.0,17.0,18.0,14.0,17.0,16.0,-0.9310798655923932,-0.5160189842838251,-0.5087145009101119,-0.3360016727944698,-0.3722582048048406,-0.006769810795819324,-0.03456650614425398,-0.14416967896810082,0.020877965501450234,-0.2348786625990164,0.12019119985612674,-0.32716533932148373,-0.15844973854385566,-0.20969397473463783,-0.021800532529188905,-0.05188165508690458,-0.7654425019555766,-0.5729929878222789,-0.16327367272105514,-0.23461052220086745,-0.32268133268626026,-0.19032892375010999,-0.09224207223014376,-0.25981188189394117,-0.8267548831363528,-0.6739694371765498,-0.3935341380166744,-0.2304082936005866,-0.6952260673930526,-0.4810626923742916,-0.38521442173799225,-0.34214275629369695,0
13.45,2.35,2.55,6.475,10.675,8.325,41.225,16.15,797.0,154.0,153.0,433.0,729.0,460.0,2748.0,990.0,15.0,17.0,17.0,20.0,22.0,13.0,15.0,20.0,-0.6913735972100966,-0.5953006615288693,-0.5743884129110453,-0.44381502429534164,-0.3785670310630249,-0.035923268881887904,-0.0509750513705819,-0.011475512525345842,-0.32059868877068176,-0.13999603261101792,-0.06206676182720885,-0.21320981972389347,-0.44325107692319043,-0.17805024508156486,0.08354238448749231,-0.07774723662278908,-0.771526432957283,-0.1830520700551046,-0.08402662323492475,-0.15578115045825786,-0.38060660156680387,-0.4856795567778905,-0.47364750604815586,-0.2913788142604071,-0.7232147036612507,-0.7574829129207014,-0.5948117173804657,-0.43262385824283084,-0.5250852388443701,-0.473288798633451,-0.26562280945053085,-0.24271895328702947,0
17.225,2.4,3.0,5.575,7.9,9.0,40.325,17.2,1106.0,158.0,173.0,380.0,523.0,521.0,2678.0,1047.0,21.0,13.0,12.0,19.0,15.0,15.0,17.0,15.0,-0.5350260176271179,-0.4789383631939919,-0.34706869490820014,-0.29563064339543127,-0.448285343045779,-0.4984208687862309,-0.1991643990117008,-0.26884054023500065,-0.2615248666741828,-0.4402126409611031,-0.20617707339668404,-0.430217121795351,-0.6415612316922058,-0.44590030128857383,-0.3625330325645981,-0.3095281676614053,-0.5736823394956181,-0.5435262208994096,-0.3787049388810523,-0.30843725055086924,-0.05676928453326529,-0.3064781150008722,0.15497654675076616,-0.1711919236692084,-0.44407219149437543,-0.20542570405727453,-0.19117306744497417,-0.12519128715450553,-0.29077356648955766,-0.17687868497197545,-0.14790385370397754,0.09753388663058721,0
19.925,1.975,2.3,6.825,11.0,8.9,38.525,18.475,1342.0,118.0,117.0,433.0,728.0,532.0,2440.0,1165.0,21.0,12.0,11.0,18.0,21.0,17.0,16.0,18.0,-1.0069907262483317,-0.9253232751033265,-0.595120658450527,-0.25236948273965293,-0.2272194361657519,-0.17410208365163676,-0.15909231227876305,-0.11005033565052472,-0.004816440230528071,-0.21126001775416106,-0.16600852991574963,0.04640230178203116,-0.5484550304221739,-0.45820383631125955,-0.41590491446628386,-0.3971300487234085,-0.6784602259239891,-0.4809766906022542,-0.3835699118347867,-0.31448219969783603,-0.266324952062521,-0.23887755029132873,-0.19814615774368613,-0.3065949746720912,-0.6402665914491062,-0.3683917508789915,-0.3655842542740844,-0.3276743619103658,-0.4749105005821715,-0.14326431594034078,-0.3721155596273036,-0.3074101648372854,0
14.525,2.35,2.4,7.0,12.125,7.35,42.675,17.7,990.0,151.0,135.0,432.0,852.0,497.0,2827.0,1159.0,19.0,14.0,16.0,17.0,23.0,20.0,19.0,20.0,-0.6275021923797386,-0.32325192712191325,-0.6428670047170305,-0.29661035920005197,-0.505637498572071,-0.2911265706191942,-0.20459263676396386,-0.04972831002095563,-0.3818888630643921,-0.2091355761090821,-0.3610150803256241,0.005647329848543878,-0.6031551642064974,-0.5169581321531109,-0.47501933087137754,-0.3559580190783543,-0.7717887500023548,-0.5035474055469534,-0.5410260847505025,-0.34016897189291134,-0.38794440461428414,-0.13899181305705616,-0.15891461136296198,-0.07989664230907093,-0.7186014088868607,-0.41735067476378895,-0.18142876871047203,-0.21849747491820973,-0.7228977290391297,-0.5392126213520484,-0.3363331605816911,-0.3180605036682905,0
14.325,1.8,2.4,5.275,9.75,7.525,25.05,17.725,924.0,112.0,138.0,356.0,625.0,424.0,1620.0,1156.0,19.0,16.0,13.0,19.0,16.0,16.0,18.0,17.0,-0.5185194844421588,-0.45474900506578053,-0.4256360828519541,-0.3613938290676523,-0.44822883135590297,-0.27002856665967,-0.1544932056905923,-0.2648740162237007,-0.3634787722887405,-0.3299504880177918,-0.24061612754727757,-0.26329055671594487,-0.5662407901478139,-0.5670295157159508,-0.2531310947939864,-0.2735484858310417,-0.5229817782859173,-0.282563621610409,-0.4099286161386938,-0.42226076671485946,0.00045212574450106887,-0.6225975534472779,-0.0463400038824951,-0.5169407719346486,-0.31871042722097803,-0.20241451972692964,-0.02181981034119379,-0.09705463727441657,-0.4815330785449068,-0.24348419575228014,-0.148230262752605,-0.28586930716563846,0
14.5,2.025,2.675,5.65,10.575,6.4,28.3,14.15,982.0,136.0,178.0,321.0,731.0,376.0,1809.0,966.0,18.0,15.0,16.0,16.0,22.0,12.0,16.0,20.0,-0.600082698772049,-0.5127930182230145,-0.27246807510788806,-0.31115186764295644,-0.3770636032071516,0.10869887984684969,-0.0015307472930553498,-0.30877717236981833,-0.6228318439564675,-0.20904453000284604,-0.4795881481198102,-0.3863708854022611,-0.6016333491630721,-0.5261637408015917,-0.62738768920179,-0.354345419326902,-0.9039249831280072,-0.7080017673684226,-0.44111657227738993,-0.323044855439872,-0.2604264589994509,-0.37869466719389333,-0.3507449988056448,-0.4977707605044159,-0.40886122971409106,-0.31030521266864514,-0.4157607920369992,-0.438346475119146,-0.6016976504001716,-0.2093788561247736,-0.18376429426011365,-0.05019264482595075,0
22.2,2.025,2.975,7.925,8.975,6.575,39.175,15.175,1474.0,120.0,181.0,511.0,624.0,347.0,2631.0,951.0,23.0,13.0,15.0,19.0,24.0,13.0,21.0,21.0,-0.799065745888641,-0.675882659478741,-0.43292326527724734,-0.20807319570944482,-0.393302994042183,-0.28818256498638684,-0.34428209534279475,-0.310385531730968,-0.3873666079658114,-0.14505748785792152,-0.3598868467289512,-0.2631355787440038,-0.5947143063915651,-0.32683237606069515,-0.32410808192812146,-0.3654012026520862,-0.7662855463263145,-0.5926440223691026,-0.3992329389268827,-0.3933270392020681,-0.18371181110687065,-0.37659751322616664,-0.26446392775320227,-0.20034353022396503,-0.8236612078098997,-0.6476272458318408,-0.7021840853020567,-0.35824155410537645,-0.45416241506395005,-0.30483799478986723,-0.1209929099200394,-0.020101195023189272,0
20.0,2.05,2.4,5.475,8.45,7.875,31.6,16.9,1307.0,129.0,112.0,356.0,593.0,465.0,1910.0,1093.0,18.0,14.0,11.0,19.0,19.0,17.0,13.0,20.0,-0.4817451994726066,-0.23666464286861985,-0.2085111851429753,-0.45292752806868813,-0.55000779927777,-0.44878988395493347,-0.39128121757872325,-0.2359200202051377,0.09670086720595543,-0.14582590329237302,-0.22899690224384986,0.1971975740768444,-0.6015269283060973,-0.43171795370173727,-0.5665905359459237,-0.40065688875568656,-0.6433325482061119,-0.3956790332011152,-0.2767025982705268,-0.3184108972979248,-0.48447085557211866,-0.38056740996790034,-0.5067466861938058,-0.1165666672902517,-0.5626255090092062,-0.6992912860631758,-0.6003161239453848,-0.2599068776896931,-0.6031119663610343,-0.5375354202856406,-0.2268035614270295,-0.08089348510002518,0
17.25,1.8,2.225,4.775,6.325,7.125,31.225,14.725,1164.0,96.0,116.0,302.0,403.0,437.0,1798.0,778.0,17.0,12.0,13.0,15.0,15.0,17.0,13.0,12.0,-0.7896560146164547,-0.5244701622217537,-0.21187865949846907,-0.14448708481645423,-0.12009370554788572,-0.061409294181229396,-0.28224303239481524,-0.31189542536259524,-0.059419930277894474,-0.41739401165424317,-0.3312911174432745,-0.14251936366626408,-0.33776057741928356,-0.3925450268763913,-0.19764945529663777,-0.13061372185012132,-0.41074779825207697,-0.4190457474273935,-0.16796442368732797,-0.43368695389371476,-0.40166914406591836,-0.2747910377771023,-0.5220933057058529,-0.19950106448602312,-0.3483154896185372,-0.5097413548332298,-0.3761791658561911,-0.3725719100363459,-0.05023535975631604,-0.7689173146552479,-0.10491747041699043,-0.5739339046356502,0
15.775,1.65,1.85,5.125,7.725,6.225,33.3,11.875,1044.0,90.0,122.0,332.0,516.0,401.0,2116.0,776.0,18.0,8.0,16.0,17.0,17.0,18.0,18.0,18.0,-0.6149868015842972,-0.6721702589466609,-0.41398404516721576,-0.332413513545396,-0.0776483079579706,-0.06133518990988058,0.044232452966506144,-0.32505593743630035,-0.2399003409740832,-0.01241628236198397,-0.24596461250102072,-0.17640058227098118,-0.5264780961875939,-0.2863576010215833,-0.19092383757869402,0.004232699014396596,-0.6354023121197102,-0.3415401810840724,-0.34227254939263,-0.10813619793890372,-0.3957549234327466,-0.30255079444632654,-0.1504471263397236,-0.40313789836715613,-0.6226772825580354,-0.5682482331087709,-0.4429935167160466,-0.44695504999566754,-0.4558912805645774,-0.36733840276338303,-0.04625364302569094,-0.2956951267371343,0
16.65,2.125,2.05,5.275,8.0,7.35,36.25,14.625,1131.0,122.0,140.0,358.0,521.0,389.0,2342.0,1006.0,16.0,14.0,12.0,14.0,16.0,18.0,18.0,18.0,-0.5887890572562633,-0.35636900749641287,-0.4836560697343517,-0.13659457101698652,-0.47320645602276096,-0.02482623258501488,-0.47482707193563894,-0.6134733389145297,-0.4431136065368742,-0.21965689262969243,-0.026203055033701843,0.09128872680997467,-0.4469113617027473,-0.21748421710266785,-0.10190873725393086,-0.03616946728354829,-0.7483933713408562,-0.36085066506830576,-0.24038595787311076,-0.01183913089713541,-0.03166326784493082,-0.11928767259044103,-0.27886684503456355,-0.2631652099742845,-0.5860217002039076,-0.5597471847316351,-0.45541791099108336,-0.38339918360587577,-0.7854848484806645,-0.6042237461496786,-0.17047119656897075,-0.19185220138036166,0
17.125,2.275,2.6,6.45,7.475,7.35,28.975,12.1,1118.0,145.0,160.0,453.0,502.0,426.0,1574.0,799.0,18.0,15.0,13.0,22.0,17.0,14.0,13.0,17.0,-0.7633858329950295,-0.8717657580953775,-0.42779983861457,-0.20015051858107524,-0.35319319911123936,0.13524371784942227,0.03998028213320943,-0.1439073526467997,-0.31057155512974854,-0.04737002391030632,-0.09214108228743817,-0.23315533215193637,-0.4914676640114843,-0.34467517705958695,-0.20864270644705737,-0.07426142192434457,-0.8078806469419011,-0.5913289797778399,-0.3216691039270887,-0.24396976066431364,-0.15400658457910987,-0.033241022365394536,-0.2950233884382702,-0.5115021786445293,-0.2932932931216339,-0.4289644678481983,-0.32667465402872253,-0.4797215449375434,-0.4898853118842653,-0.30661896594733973,-0.24484043972159075,-0.15980955044821787,0
17.525,1.875,2.275,4.625,7.725,5.775,22.95,11.25,1222.0,111.0,125.0,299.0,543.0,343.0,1298.0,644.0,18.0,11.0,13.0,17.0,23.0,16.0,17.0,15.0,-0.5355678889459025,-0.083121725199114,-0.13526647715313006,-0.39500661021108374,-0.2665339051553117,0.04703355892274834,-0.3347846943471384,-0.3301594526851741,-0.13177147046652454,-0.3069922415724864,-0.12357094817778878,-0.25743040786199856,-0.27068503492743184,-0.09544028531630666,-0.022749463023493736,-0.12364567997559624,-1.000034320933976,-0.6280739199177324,-0.16504735151385905,0.008676580374550049,-0.4286311868179911,-0.29084926721767196,-0.3872284982323983,-0.4917754726656247,-0.15181887549417686,-0.4230940919696818,-0.2007724193641494,-0.4255108705163419,-0.12921075555511058,-0.1883625098503669,-0.15959367304168082,0.06119056906209932,0
20.25,2.0,2.325,4.225,8.05,6.5,31.025,15.6,1478.0,123.0,135.0,235.0,577.0,357.0,1907.0,888.0,23.0,16.0,15.0,14.0,19.0,15.0,19.0,13.0,-0.6658670082398754,-0.05732016358026917,-0.19430917188072758,-0.4031296654436351,-0.7496984450429783,-0.4456923777880947,-0.18320413209507888,-0.11269423637733071,-0.20678225324650337,-0.31846081158001116,0.022684994322077188,-0.27484317506404227,-0.19779224275915874,-0.1750415898208046,0.09526595655864757,-0.06500824973792832,-0.7876452309966285,-0.4335049347341387,-0.2534710888043697,-0.02306948080940193,-0.36752915780085693,-0.7586918793314086,-0.43071573811991626,-0.4704137381116965,-0.3813459896842557,-0.506542467700054,-0.1977600407677188,-0.43632448097503834,-0.4803083053313893,-0.6262841039907835,-0.553437128143453,-0.34317463313325414,0
15.65,1.575,2.25,4.125,8.85,6.275,34.325,16.025,1031.0,96.0,128.0,228.0,613.0,373.0,2316.0,937.0,16.0,12.0,12.0,15.0,22.0,14.0,20.0,16.0,-0.46943167537575464,-0.2263120383550537,-0.41092981657488087,-0.23567166779017318,-0.5029650236493985,-0.13611714814726542,0.2262256786670028,0.06694771959983764,-0.13063916911252535,-0.23483093407042135,0.03438362728851831,0.07866674739626123,-0.047969159685480295,-0.0002177319036125674,0.12916292363132714,-0.052224113178024306,-0.603885649362056,-0.17496490319506128,0.003200664622437502,0.13440537837371713,-0.2971559323840042,-0.8119937243425871,-0.216594265241778,-0.6313094332693098,-0.5961856580628402,-0.5496567688258088,-0.0683236279128337,-0.20238861788274823,-0.34692478846078273,-0.4218753771999703,-0.3292960621916053,-0.40008279455945656,0
19.775,2.1,2.3,4.175,9.325,6.575,28.575,15.325,1346.0,108.0,132.0,260.0,616.0,386.0,1881.0,934.0,18.0,14.0,15.0,18.0,15.0,12.0,17.0,21.0,-0.7218076717690026,-0.5351207139313359,-0.5801922841036236,-0.36638055133668423,-0.40359076299548374,-0.9366179610767761,-0.3996681876128587,-0.4690029104741418,-0.167663827314545,-0.3186424452425576,-0.04503429839649661,0.10952886112813301,-0.3529022058877634,-0.3352109707721095,0.0039991884474709395,-0.057875626842303116,-0.40575787431136195,-0.2359505500615307,-0.03968736895905918,-0.33354080759866084,-0.24443829619651813,-0.39307646663468226,-0.28456501993449607,-0.28736566647759243,-0.6216914136102659,-0.462599269974432,-0.6048554691553786,-0.44734181560133107,-0.48329061900467574,-0.3706188408457162,-0.37244803766965096,-0.3438711736550687,0
22.175,2.275,2.875,5.375,10.375,7.125,37.0,14.95,1501.0,128.0,189.0,352.0,722.0,411.0,2537.0,1051.0,15.0,12.0,14.0,15.0,21.0,17.0,20.0,23.0,-0.8546895597496933,-0.8068708911182875,-0.6947184468307934,-0.4568114509997848,-0.3577912733528304,-0.3158727734996647,-0.26921595854661895,-0.17833937473574105,-0.4754139817826575,-0.30062412971070424,-0.27054285704183406,-0.3106312531945629,-0.45659922900416733,-0.46508190829657714,-0.2633484514918458,-0.4057738610938653,-0.6780218371768962,-0.22927271426112894,-0.09000509233493426,0.07621003737609658,-0.2639118715894948,-0.3101592841951134,-0.1915917926114446,-0.04285080458114208,-1.0620163332097265,-0.9442144837265132,-0.7030131568779566,-0.398140880244172,-0.7125448896948993,-0.24892709819787404,-0.03679369976075817,0.0044360064360589,0
15.525,2.2,2.65,5.675,10.025,8.75,34.025,12.875,1107.0,136.0,156.0,361.0,706.0,497.0,2172.0,902.0,21.0,20.0,15.0,20.0,18.0,17.0,18.0,17.0,-0.6451221963105362,-0.43650171034723606,-0.23347013186681964,-0.3172171914858069,-0.2190871714957754,-0.04374168840024654,-0.059144073007791016,-0.21334142012152518,-0.22396832783486637,0.03158810092459276,-0.1383982720775173,-0.21816412804856872,-0.339875946851333,-0.028998566364047892,-0.2909067650253634,-0.3361156683864115,-0.6800877886298146,-0.3208220774922906,-0.353435662403857,-0.19671034270195664,-0.36172926344153744,-0.30549029686934437,-0.5615088095478499,-0.15097399604065112,-0.5389889046269699,-0.33489602622911957,-0.3438217477357232,-0.30511798511226473,-0.6626474442740611,-0.4184692766123398,-0.46836617703300454,-0.19161990726346595,0
15.8,2.025,2.425,5.975,9.3,7.975,43.075,17.475,1134.0,126.0,156.0,404.0,657.0,529.0,2821.0,1159.0,20.0,12.0,15.0,20.0,20.0,14.0,16.0,20.0,-0.6405207301014136,-0.2187421185876226,-0.2461843779263254,-0.13043909715077984,-0.31700585258486075,-0.21956227936541572,-0.3995809123278192,-0.23092293316731416,-0.4404732724082129,-0.34736184574592427,-0.2812974290113304,-0.41908762514317316,-0.5063370626353231,-0.5395838879886291,-0.30784763985665836,-0.5796899142732301,-0.969820104214317,-0.7192032774703447,-0.22676564455481063,-0.011583149024635413,-0.41741016299791184,-0.2507762565557171,-0.4153016196533292,-0.1745352420676713,-0.6923914579897538,-0.422019302364694,-0.4742434562337827,-0.5495474422991287,-0.531887973072906,-0.29092864216017533,-0.27357465218872473,-0.3742769743331333,0
20.0,2.25,3.075,7.525,6.825,9.275,50.625,16.625,1465.0,134.0,175.0,473.0,452.0,651.0,3202.0,1097.0,21.0,12.0,12.0,17.0,18.0,19.0,16.0,20.0,-0.8669990694152342,-0.5530702173407301,-0.4829121769115075,-0.5039429096951179,-0.3375634020839844,-0.31997961348803966,-0.378981639491074,-0.11217623586241415,-0.0917070920372524,-0.34038999167691825,-0.047628300597172116,-0.09794535041012452,-0.5085083124358221,-0.40097189741143063,-0.321722561943422,-0.13601454551836356,-0.38373115179547335,-0.20560709372450403,-0.07988487597792956,0.17087479561363983,-0.524793827813932,-0.3435498370442947,-0.3644600917844857,-0.3500471254508049,-0.523587409965564,-0.391653235481448,-0.2393506321028073,-0.3688437514987349,-0.5104519555515463,-0.2696226498563291,-0.1477136989880997,-0.23481540772299192,0
21.6,2.725,2.725,5.675,7.525,9.0,48.75,18.575,1489.0,166.0,154.0,392.0,490.0,584.0,3458.0,1298.0,23.0,16.0,12.0,20.0,13.0,16.0,22.0,20.0,-0.7501948130287683,-0.5814744554950356,-0.5495033083058624,-0.228929898858546,-0.1635996255624756,-0.1620966200193878,-0.16692229548325,-0.021143546852365927,-0.20883398271911127,-0.18793870580517308,-0.19235249960330042,-0.1348962569383665,-0.661579523350155,-0.18064637183629126,-0.17470108850488475,-0.23522676935533662,-0.4406038031880475,-0.22186919719461323,-0.08505977995305342,-0.09880901561201626,-0.3884159047432337,-0.2721937312050913,-0.2487469107454348,-0.3161952465670996,-0.8832521136548501,-0.5616564262698096,-0.17538663888423478,-0.1287085808178731,-0.630052566284987,-0.27132199064569457,-0.1789457738265671,-0.2196899303292658,0
23.45,2.675,2.0,4.425,9.325,7.25,35.975,16.425,1638.0,144.0,108.0,285.0,586.0,412.0,2388.0,1150.0,20.0,16.0,12.0,17.0,19.0,14.0,16.0,23.0,-0.7010797932894741,-0.2892761015151508,-0.2625349886740203,-0.35762634410619537,-0.2833669687083439,-0.17615451956346373,0.030680693574412617,-0.1764322998329617,-0.048140271938529995,-0.4542158496747695,-0.20783422042524913,-0.3088616697492168,-0.3983725877358961,-0.1466631484815401,0.008571083984281315,-0.11995516073849394,-0.35797601060480605,-0.1211618030196101,-0.18016243973854285,-0.12154197158880743,-0.10352347172330287,-0.06437986910597997,-0.15285045027722685,-0.35765344130691823,-0.5067585068933017,-0.38083317318242876,-0.1441989135445344,-0.02231530604687604,-0.5699830624932593,-0.3001471721609363,0.02572177728157055,-0.11237210005462016,0
15.775,2.15,2.15,5.375,8.15,6.975,32.525,13.2,1080.0,120.0,133.0,320.0,499.0,434.0,2154.0,837.0,17.0,16.0,14.0,14.0,16.0,19.0,20.0,16.0,-0.8376854470380372,-0.638377518033496,-0.5809723525557567,-0.28650380401498937,-0.25944941689994333,-0.10696766933466886,-0.06722728431151258,0.11126713213722397,-0.21474526854494838,-0.017718480826215997,-0.3221643511587624,-0.1561664276580658,-0.2788144025055362,-0.32009191766022577,-0.22215682338118925,-0.18094381309279864,-0.4388117672982809,-0.08770594093581152,-0.004637401327406869,-0.04986399937522471,-0.23082697026956542,-0.2937376533125949,-0.05346880913266671,-0.2759646207983051,-0.6771892669397105,-0.5224377951138632,-0.33388407359050404,-0.3196781377274918,-0.5894446361132719,-0.678075230503773,-0.22923201908302945,-0.25375877138717834,0
16.1,2.1,2.55,5.55,10.15,7.875,31.275,15.975,1197.0,123.0,146.0,352.0,709.0,470.0,1889.0,1008.0,23.0,15.0,15.0,17.0,20.0,16.0,19.0,16.0,-0.9919412269303604,-0.6811105381448928,-0.5779704195895508,-0.3965328425471143,-0.23998149971741653,-0.2028431753111263,-0.1149851066860298,-0.2882656999594282,-0.22676723291071996,-0.5360807977154723,-0.26428328049966965,-0.2794459042839629,-0.32163692676808897,-0.3641523792981941,-0.30019146811259845,-0.11665842360913903,-0.7435753113327438,-0.3392933285412792,-0.19416147744415976,-0.15926004064316024,-0.3895732883033643,-0.4832435846565349,-0.3663989309282995,-0.3009806586471902,-0.5273828954372243,-0.4536802389860482,-0.4463820150401062,-0.3690452076191058,-0.6537022934644148,-0.6324648976368702,-0.5161742119003444,-0.5141801784311196,0
16.475,2.1,2.625,6.2,6.525,8.55,36.15,14.275,1228.0,123.0,158.0,382.0,353.0,445.0,2341.0,891.0,23.0,15.0,17.0,17.0,12.0,11.0,17.0,17.0,-0.6796391616030668,-0.4032559627309269,-0.26616212726956257,-0.21075351680179855,-0.170101819420002,-0.26045530121600224,-0.03524575185673435,-0.19694229988305323,-0.4840617683789615,-0.4990137018497394,-0.412251935041073,-0.2784973713858238,-0.25460193553463834,-0.03127778305072244,-0.3172519914237264,-0.22447347311688098,-0.28177445140864055,-0.35532869347927903,-0.2673127791227634,-0.36149305364750556,-0.3227499265371816,-0.5323165886656223,-0.4450466059634893,-0.47776219980076423,-0.5086720514562019,-0.4163623395344017,-0.4236740717568498,-0.5694319219112371,-0.47882864700139777,-0.1758471531362037,-0.22398360824420702,-0.3082839475750991,0
15.25,2.525,2.975,7.45,7.2,6.35,33.8,12.825,1030.0,128.0,169.0,475.0,473.0,289.0,2013.0,824.0,17.0,14.0,18.0,15.0,21.0,11.0,17.0,20.0,-0.6626370103044947,-0.3201559499132712,-0.4697933985975917,-0.3140494364283862,-0.36608330566974906,-0.32310664964381763,-0.40442968872153073,-0.24060501022401362,-0.21227871073604537,-0.2569791747213225,-0.2834306943522374,-0.05594338661151998,-0.2925895309723732,-0.27480547464001376,-0.27278069394318327,-0.12344082111076173,-0.45568693069838534,-0.2646197521900109,-0.1321282593248877,-0.36956001616203377,-0.02288761824486184,-0.13423559857037526,-0.42483179413347516,-0.27444176523972175,-0.35004844852505285,-0.3883042830512978,-0.3046225791541655,-0.5011646086490794,-0.54197316075956,-0.34111043318724754,-0.36828687752614403,-0.5462751099044368,0
10.575,2.175,2.65,6.675,8.325,5.05,36.7,10.4,683.0,102.0,172.0,459.0,582.0,305.0,2415.0,626.0,17.0,11.0,17.0,20.0,21.0,13.0,19.0,12.0,-0.3585079572951098,-0.18884708521375954,-0.15870573575060196,-0.4339543913659918,-0.1656851873386226,-0.2479045417366882,-0.37588531241813206,-0.2717546829200417,-0.42332160418266057,-0.21326059145270435,-0.28042751311023195,-0.05161301753605787,-0.4211891487747895,-0.22218561474178264,-0.32167237407744,0.09132611957454644,-0.7364240187271986,-0.4183086187061146,-0.21161950442476432,-0.1297171546165908,-0.2228145995122989,-0.41733228477181517,-0.13169421013205726,-0.2699282303039311,-0.805096343362358,-0.6773919313407992,-0.31301239783478735,-0.252608890067681,-0.4198507316991025,-0.21156385049239093,-0.27149721566416307,-0.2518710694599889,0
20.95,2.175,3.2,7.425,8.45,5.15,25.3,9.85,1412.0,143.0,200.0,482.0,559.0,321.0,1575.0,609.0,19.0,17.0,17.0,17.0,16.0,17.0,20.0,20.0,-0.7852005100237046,-0.667245460472337,-0.32189448720464003,-0.26005518326984034,-0.20581717001643876,-0.19557098429385805,0.07234691878696349,-0.10216409327735404,-0.4396983186402787,-0.4935527707712768,-0.2652552437808338,-0.21929797399234785,-0.6395239591252294,-0.5951910878986937,-0.6084653287311426,-0.5109278997559518,-0.7012474821870129,-0.5174030247024011,-0.507182540932999,-0.48166377433668406,-0.3315613947508058,-0.28512244990972974,-0.19967742075477518,-0.24774325511096507,-0.49560322434270637,-0.6170789709853893,-0.31856964319844966,-0.322168011350201,-0.2469724236911634,-0.11447323062516848,-0.16517655636143078,0.1426846497553807,0
26.0,2.275,3.075,5.45,7.25,6.25,32.8,15.425,1805.0,134.0,178.0,338.0,462.0,423.0,2080.0,890.0,22.0,16.0,17.0,17.0,18.0,17.0,17.0,16.0,-0.903397426592492,-0.577233938666215,-0.4663165587921155,-0.24737652791751438,-0.02488416150372335,-0.21855746116244382,0.0754835540295132,-0.19528046340738012,-0.060689433915831065,-0.24959168626572795,0.1675915582489138,-0.35557816935817355,-0.3072653994668468,-0.2160046473150477,0.06118934474252052,-0.17519616312648326,-0.4760862733950608,-0.3325929508386157,-0.10066060975148132,-0.06720296408870607,-0.5277248943521127,-0.43916258169017003,-0.37342713609333583,-0.3447375812027452,-0.8056330718981377,-0.8207437074883288,-0.7247633498066833,-0.4597142145617737,-0.3010836214571189,-0.3180574184797617,-0.3800442350801285,-0.30547911197695315,0
17.725,2.325,3.2,6.35,6.175,7.175,31.375,15.825,1246.0,137.0,177.0,362.0,445.0,423.0,1785.0,994.0,21.0,15.0,19.0,17.0,23.0,15.0,13.0,22.0,-0.7714214393748051,-0.33570647979697676,-0.26153999578499815,-0.1545763109577842,-0.007662007236071511,0.1807766886710516,-0.3965986354160593,-0.007279589270422472,-0.11662952721128625,-0.17281101300897564,-0.2868445827700342,-0.22282692495200584,-0.2233455408394763,-0.22062132589587768,-0.3405406539828228,-0.16993693447363875,-0.6446282461757601,-0.119061932014569,-0.20122705612949587,-0.093143364874591,-0.21989456526478768,-0.20925106423212875,-0.41022483720466807,-0.2565625764440245,-0.6865213995582055,-0.7115569062964524,-0.6101194917613239,-0.1396759632893686,-0.6843712369826531,-0.6348192423379846,-0.45687409943522805,-0.1546605737085202,0
16.925,2.025,2.775,6.15,7.275,7.775,29.375,13.625,1053.0,123.0,172.0,356.0,408.0,391.0,1819.0,887.0,14.0,14.0,16.0,14.0,15.0,15.0,16.0,18.0,-0.39116681332910486,-0.42548363331240985,-0.25420328928893726,-0.401620798282002,-0.4128361223714729,0.08066622660221295,-0.057495700319951104,-0.1463387827336516,-0.4318735777778734,-0.5277698001515232,-0.31169235760247777,-0.12249319473755495,-0.35439406374036286,-0.4459872009695311,-0.436196778733987,-0.2759928498298717,-0.22747685485405186,-0.4756188003564212,-0.2810694486196066,-0.39457069928980865,0.20547061671783112,-0.18772444122225673,-0.04768470946009915,-0.32686587181743765,-0.22329063958911716,-0.38541374200392425,-0.2013109308901332,-0.28468707999718645,-0.6021296345170337,-0.49228971569691055,-0.320589929849364,-0.3370795501940413,0
16.5,1.875,2.225,4.675,8.875,7.0,30.125,14.125,1056.0,99.0,136.0,258.0,590.0,382.0,1785.0,930.0,17.0,11.0,17.0,13.0,22.0,12.0,16.0,16.0,-0.6862287556885491,-0.6864849130543755,-0.4087091380217615,-0.15714022094030472,-0.17953221980853937,-0.3075577601397581,-0.31760317264000115,-0.09945007221609806,-0.26770916783525045,-0.2304128230440914,-0.3285594021757801,0.07665441272947451,-0.1731372314481804,-0.0256515415899146,-0.285734128904537,-0.4121265537116067,-0.6856101329829254,-0.5001789063530473,-0.08891351027056846,-0.04021765926783007,0.0347912649372076,-0.06445286504623228,-0.2066830287011166,-0.42173988081863645,-0.31454967199458544,-0.20263314306524824,-0.2633071695725519,-0.27804980060841517,-0.5609221186256802,-0.4073144255784,-0.20755155879692339,-0.12683702890949222,0
13.425,2.025,2.9,5.5,9.025,6.35,25.175,12.85,909.0,105.0,152.0,344.0,620.0,335.0,1459.0,772.0,18.0,11.0,10.0,18.0,19.0,12.0,12.0,15.0,-0.8225364394708112,-0.8087561679965956,-0.41041526932577577,-0.3340297973086121,-0.07498877390348889,-0.15491855998521012,-0.2520255293410533,-0.1390707908739287,-0.1039730886557514,0.0442670483908663,-0.14741709068659758,-0.28049376089949823,-0.30762320177149005,-0.21039221500730004,-0.09948671965695095,-0.14186245671856892,-0.8380609158443019,-0.6149049079370895,-0.22188045844934043,-0.17893335039918007,-0.044001387787584445,-0.114801027999739,-0.13072715894193906,-0.32506673473533976,-0.20646701367303283,-0.3694564950760911,-0.13073811105626634,-0.2592093557595964,-0.28367072218112344,-0.40063030584758735,-0.26666800131676266,-0.33466418650119195,0
18.275,2.575,2.725,5.95,8.75,7.625,30.9,12.675,1236.0,152.0,173.0,378.0,580.0,443.0,2110.0,806.0,17.0,14.0,16.0,18.0,18.0,18.0,22.0,16.0,-0.5139063557339958,-0.35642230179243917,-0.2420555087062088,-0.17198015537808584,-0.23952157977015862,0.08329695710585114,0.23424577780158412,-0.23157908486678738,-0.4834093155595599,-0.14584490553411786,-0.09324787601752914,-0.2714275296645877,-0.4842016139804261,-0.33796029870935335,-0.17632088227703963,-0.30426976479017875,-0.5875102601872663,-0.4319385701091067,-0.1293409854936427,-0.1804294375287545,-0.38968478935905637,-0.35421242220981086,-0.3246567430138902,-0.47806886397978854,-0.6887390377335664,-0.29622503973763675,-0.23153985252969186,-0.374563259870016,-0.5614776406940076,-0.5260957569325283,-0.31890400207055974,-0.3402998546049228,0
20.475,2.4,2.7,6.225,8.9,6.325,31.425,13.475,1451.0,150.0,182.0,378.0,565.0,402.0,2256.0,927.0,20.0,18.0,16.0,16.0,17.0,14.0,22.0,19.0,-0.9756075501926815,-0.8981690279973606,-0.46770849384026314,-0.2509745834703742,-0.3475380761927459,-0.1463462390648786,-0.26035852112812186,-0.4108265688319283,-0.3480811266097854,0.032388134446497206,-0.10705461705135376,-0.32847343436036697,-0.4014152023699368,-0.5875920370797317,-0.34797448333802883,-0.6181422531550099,-0.7917524573221825,-0.7098450626774405,-0.6348910696085611,-0.4565446317429217,-0.5655485808127142,-0.3220003181387028,-0.34955966044177217,-0.2260105215675631,-0.9691663263300359,-0.696294091141007,-0.8076151219768382,-0.5522856885527054,-0.6387288427896409,-0.4764856058448996,-0.2719426612023625,-0.15739752036161592,0
16.175,2.15,2.775,6.65,8.875,7.35,28.475,13.925,1057.0,138.0,171.0,442.0,569.0,424.0,1815.0,963.0,17.0,17.0,13.0,18.0,18.0,17.0,19.0,19.0,-0.6079321789500124,-0.5191236551711931,-0.49071610300913254,-0.5186562850586212,-0.27252180275297655,-0.0656037097751318,0.08295553985866333,-0.2920130858398116,-0.312407216528941,-0.029840003557585752,-0.22971153987382933,-0.3655690736356054,-0.6035759001886934,-0.30190605359111705,-0.4898328381644278,-0.5306069429382311,-0.4714244236816344,-0.47622849474382406,-0.2550479468778339,-0.4466504199607458,-0.16372037011983775,-0.040956233382831816,-0.3214176144521165,-0.23364062650525677,-0.6096050161072315,-0.5660474622834393,-0.38656822294832527,-0.36236276023662506,-0.559246611178269,-0.375334366400735,0.0012109626806258184,-0.04158937818658196,0
14.5,1.975,2.525,5.975,7.2,6.5,24.1,11.5,931.0,106.0,143.0,373.0,454.0,400.0,1708.0,747.0,18.0,12.0,13.0,18.0,16.0,14.0,20.0,19.0,-0.5676484234585503,-0.2810601639999799,-0.38247093627684436,-0.24525912792460783,-0.13904353287527713,-0.10379398193281372,0.08674918493880893,-0.02275048997210076,-0.23281133764965922,-0.21346425363342086,-0.014786096571799159,-0.29385130325713,-0.6869005820114111,-0.6984388627643006,-0.45905297585653676,-0.3691099962940504,-0.6052275096143138,-0.5596658644039357,-0.2696107902361318,-0.30908314018454414,-0.24678459401406483,-0.18296331208403685,-0.19604054055385095,-0.14173179161558386,-0.5715065740129917,-0.18430746073231605,-0.3154275256221917,-0.2830745261676114,-0.4493066219543378,-0.2996050179210301,-0.25271096609917676,-0.04048914188398232,0
15.45,1.975,2.6,5.35,7.925,5.075,22.5,10.4,1043.0,110.0,158.0,343.0,549.0,279.0,1470.0,718.0,21.0,12.0,15.0,19.0,20.0,15.0,15.0,19.0,-0.7804861791648622,-0.6991210472201423,-0.3343157910002319,-0.47520650143368404,-0.06785294872649944,-0.06347039808212963,-0.22107095174404337,-0.02260416251287346,-0.1523059122269706,-0.37801469712796,-0.0006846287398436713,-0.1976769483736423,-0.6151387938667219,-0.4253933112499839,-0.24212494204325938,-0.18594012182306335,-0.8636337116314661,-0.5072294893505037,-0.4743743250847386,-0.4000272885238415,-0.17453882475463883,-0.2733642204856266,-0.34741228565305693,-0.2098767132568425,-0.6695712101626634,-0.4887646710216509,-0.48535898371745706,-0.35468712217113996,-0.6243269844119134,-0.3395647731390793,-0.28437890553149114,-0.35085163219110316,0
15.175,2.4,2.75,5.875,9.275,5.625,27.425,11.275,983.0,137.0,164.0,356.0,647.0,287.0,1850.0,756.0,19.0,12.0,8.0,13.0,19.0,13.0,22.0,14.0,-0.5309259550757581,-0.277790264705871,-0.25126866610015963,-0.2660929125831565,-0.13881558360445503,-0.07496218105419046,0.05965720576648509,-0.11286906048664998,-0.2050571922771529,-0.347052740621159,-0.1874775364927806,-0.35058804887305445,-0.49808078888868296,-0.3768318444029113,-0.4067004966256311,-0.3743485151627763,-0.7365917012128321,-0.31123053825351094,-0.05616022768374745,-0.09181855783185272,-0.09918622315903766,-0.44196505737912745,-0.14355879960035942,-0.0639952117894675,-0.6610191022261434,-0.51046874587886,-0.6614486980756779,-0.4107900265705854,-0.3943162917929411,-0.2145751873489259,-0.026553464351285506,-0.2785685110524503,0
14.425,2.375,2.45,7.25,8.45,6.475,27.8,11.25,996.0,141.0,152.0,432.0,509.0,351.0,1851.0,749.0,22.0,16.0,12.0,16.0,10.0,16.0,20.0,19.0,-0.7340515349454201,-0.46466237817833606,-0.4312145236043499,-0.5097226948202187,-0.11292541853869399,-0.3576339132160465,-0.06406525236032312,-0.6359090126405125,-0.2610126511815464,-0.3430780755802469,-0.2545118924465956,-0.46272134734093334,-0.45944390392314194,-0.5006604039312748,-0.4182730511527621,-0.4031739676071137,-0.4026457155493954,-0.3136005919794043,-0.40282037790700503,-0.24050489554931279,-0.12340263036426254,-0.3411754275254775,-0.2915956202431138,-0.5248038116559298,-0.5966604459967536,-0.33951173504270626,-0.3701338331536671,-0.256707226640426,-0.3230231122862979,-0.13020190965553394,-0.045359464697675746,-0.4289162141194117,0
12.975,1.9,2.5,6.475,7.25,6.15,35.85,13.375,890.0,101.0,143.0,395.0,504.0,432.0,2337.0,777.0,20.0,10.0,14.0,17.0,20.0,22.0,18.0,14.0,-0.8751047766732293,-0.9795619352598152,-0.7437244202658851,-0.7781231135035462,0.09009468540004677,-0.3918512821648128,0.12073592181696982,-0.2175924497391957,-0.34086554577770073,-0.1728651034967553,-0.2587249485416995,-0.2069823125305751,-0.4063402900924558,-0.41923789430371033,-0.36268831125837714,-0.4058024098358902,-0.679090187400053,-0.2712144205057561,-0.22510346156282748,-0.30277597633494163,-0.8489952756623961,-0.707160262496997,-0.8105632838985326,-0.6283859097402584,-0.9195571254068796,-0.7902886348357683,-0.8201860305021131,-0.740585182600333,-0.5458709894214241,-0.647752113205402,-0.5244530198725365,-0.4226074353300695,0
19.125,1.85,1.825,5.3,5.175,6.175,28.3,11.175,1360.0,116.0,107.0,342.0,373.0,359.0,1702.0,701.0,22.0,13.0,12.0,16.0,18.0,14.0,15.0,17.0,-0.928517434110672,-0.670422177287763,-0.41156458868044,-0.21380454361014098,-0.41494022237786415,-0.13832845525936938,0.2157603666304305,0.2534110935516456,-0.2248641996704769,-0.10778743663492826,-0.036795759372172644,0.10245123940771594,-0.5852426737109342,-0.33710931634098074,-0.12338714579990559,0.05612084042320414,-0.4705771606022083,-0.044775632157317134,-0.23883779588247386,-0.37128203650208697,-0.11700694378920513,-0.15286902974335928,-0.38758142381011595,0.07074190704399684,-0.7063217494131967,-0.7749432243407877,-0.6476394702242277,-0.6075958932684946,-0.4435852236552446,-0.3633705711928958,-0.2889570373395243,-0.14694522796252849,0
19.3,2.4,2.05,5.25,5.6,6.2,34.475,10.325,1328.0,146.0,141.0,371.0,363.0,383.0,2393.0,664.0,18.0,12.0,21.0,21.0,20.0,20.0,22.0,18.0,-0.8632931683231255,-0.4952492935398761,-0.19778631564784377,-0.08997471133667798,-0.23459519427871361,-0.2147680576335207,-0.37704169830711703,-0.0813000429716954,-0.4653693906254749,-0.0390342922960946,0.17881900255721886,0.20550523180127037,-0.38683424559222934,-0.18939020517724345,0.12714542431821232,-0.3349049921230429,-0.21481628667890046,0.0518249734037528,-0.03566769735648007,-0.33366214038284303,-0.3321768232767187,-0.15848227412994834,-0.08422840759008407,-0.24690460888867174,-0.8986933688619412,-0.38327149528001186,-0.030993789694125463,-0.047719188572612516,-0.48515951672637286,-0.12759635851227105,0.07276253119496812,-0.12095660531953098,0
20.65,2.225,2.75,6.0,8.55,5.25,37.325,14.075,1348.0,136.0,162.0,406.0,561.0,357.0,2626.0,970.0,20.0,17.0,15.0,15.0,20.0,17.0,17.0,23.0,-0.6831934683425209,-0.793360687719977,-0.3946976904993704,-0.3810351333371312,-0.27876830061141794,-0.296075772278574,0.1432133812834615,0.04611611842688331,-0.481839632407776,-0.4630221759039379,-0.3149914225823416,-0.497503090054577,-0.4754365934518428,-0.4920414917305614,-0.0975589943696153,-0.40943681838901413,-0.48833182195538954,-0.40727994296516773,-0.31659003271935593,-0.29675804451818155,-0.5346238866344222,-0.2029282593434144,-0.044031495917747805,-0.16174611265138916,-1.0269864861122389,-0.8473701683808899,-0.4719349824579313,-0.13118937106472212,-0.6726398369793057,-0.2914619344207428,-0.12291664416635632,-0.07661664441835117,0
19.3,2.05,2.5,5.75,6.125,5.65,28.425,12.85,1362.0,123.0,144.0,375.0,365.0,367.0,1743.0,857.0,25.0,13.0,13.0,19.0,12.0,17.0,14.0,15.0,-0.8474232120439171,-0.683424201642862,-0.32525431735584925,-0.34513747736232697,-0.41007257012582715,-0.32014478339449404,-0.09331178738715709,0.09120994783185854,-0.37023847915166125,-0.3593985322360031,-0.22509611848324443,-0.05514238328254619,-0.40855195082003803,-0.19402851272184846,0.03725700409266513,0.05550957820062869,-0.15110588404357436,-0.4692405813384143,-0.026699647436839957,-0.3203033547182513,-0.2885156964538685,-0.06038630334249104,-0.27150027713049074,0.022282874722743408,-0.5986226804098563,-0.3871825309295959,-0.5201505725263226,-0.32268219690243366,-0.49255505761240814,-0.24100203707615098,-0.40940586506389015,-0.13898791675371774,0
17.725,2.575,2.775,5.975,7.55,7.025,32.8,12.9,1216.0,177.0,154.0,382.0,531.0,438.0,2180.0,897.0,20.0,23.0,13.0,17.0,21.0,16.0,19.0,22.0,-0.5812868095593898,-0.19099058604916266,-0.3336254184198101,-0.554960360132135,-0.6934125615501124,-0.28157045725991076,-0.2078095368511745,-0.02683930450460517,-0.3259613357116467,-0.264324062370348,-0.5550657975554798,-0.24732946861608154,-0.3208518893716396,-0.12915852331449432,-0.21147212576513347,-0.026839889273070083,-0.7538023546113471,-0.4737522897511592,-0.4477727447592796,-0.37319570580934164,-0.3083667327667844,-0.2628582797606328,-0.4286944666785517,-0.1653410865235027,-0.568009229736162,-0.23564257216663284,-0.591414564250522,-0.39057816469143924,-0.5514175512831314,-0.2627025179512555,-0.29228581061933034,-0.1706876092284597,0
17.65,2.8,2.3,4.875,5.775,7.025,35.2,13.225,1286.0,186.0,142.0,333.0,387.0,451.0,2406.0,887.0,20.0,18.0,14.0,14.0,16.0,16.0,15.0,16.0,-0.9249929174303454,-0.8085346117270737,-0.7546579472453532,-0.5610157993200078,-0.4738228512476978,0.1765014359984816,0.03597124918946756,-0.1366458571757316,-0.38006723792435637,-0.16943319873695944,-0.4864339475638786,-0.40917516927733477,-0.4638043015358623,-0.3234399900910858,-0.43242116359827915,-0.30050002704924345,-0.7051900799155116,-0.7306196919661256,-0.3887830608838126,-0.3186612297690494,-0.38550415423111967,-0.26654393627723627,-0.4355450961480545,-0.3994691060499673,-0.6166683930427814,-0.4040183445541164,-0.4083113484496626,-0.20642450646051844,-0.49946796995599135,-0.239327281574259,-0.31614798449033943,-0.280746482177007,0
23.875,2.95,2.85,7.075,7.375,7.35,34.25,11.425,1748.0,196.0,199.0,460.0,497.0,505.0,2158.0,739.0,25.0,19.0,17.0,17.0,16.0,20.0,20.0,14.0,-0.9792922116512021,-0.687958221724774,-0.7447364147174373,-0.3286989754269799,-0.5404960418737567,-0.12598692705309156,-0.09503582972725251,-0.2228625922993894,-0.5724136004297324,-0.16361256567082533,-0.4014843527006091,-0.6546674896422936,-0.5099892257820823,-0.19206777087155505,-0.28064069669170916,-0.4882205351093556,-0.9802276746492222,-0.7108122425645977,-0.8087788367907408,-0.5066678897515479,-0.4720862967109056,-0.47929355312276456,-0.33025228261950973,-0.2305874541786212,-0.8296502565089086,-0.8055932943889635,-0.7463892744377418,-0.2537152668296482,-0.3808258997471721,-0.2526000419319853,-0.20289134395058045,-0.3664902199375347,0
20.275,2.45,2.225,5.525,7.275,7.25,35.975,12.1,1454.0,159.0,133.0,306.0,448.0,402.0,2356.0,804.0,21.0,12.0,14.0,11.0,17.0,13.0,19.0,19.0,-0.7426261107317867,-0.29348869329252386,-0.22859799449024357,-0.20865580131813863,-0.506468432010106,-0.06303326305292348,-0.10032096863572387,-0.28215741384447623,-0.22857662353323546,-0.25960365402195823,-0.0998944362427546,-0.2266866942446777,-0.13373572329933703,-0.405772998003124,-0.11292463637220926,-0.5165029108873231,-0.6930662742857919,-0.4491111382333987,-0.2678718268339637,-0.1260009806216999,-0.19246547400168001,-0.3585054435332204,-0.205220844729419,-0.04566091745365294,-0.5163879631369201,-0.2761748341995486,-0.11632990849094257,-0.3027710032867331,-0.7749660362601374,-0.6365802888858724,-0.264139042842266,-0.17272571526836755,0
16.225,2.15,2.025,6.35,10.375,8.25,38.675,11.425,1133.0,128.0,128.0,421.0,683.0,465.0,2692.0,788.0,17.0,14.0,15.0,17.0,22.0,15.0,23.0,22.0,-0.8798123923737996,-0.6690493975450698,-0.3253692691931854,-0.15714460081252027,-0.4354505383905867,-0.09480824742425085,-0.5681978837895961,-0.4706927425107729,-0.11725782123315757,0.340705961146058,-0.29429177116568267,-0.28323973517494366,-0.4799273590226485,0.03738630386716747,-0.4978402843409565,-0.511442473506891,-0.7054877961583108,-0.5766732647318814,-0.18928863035574733,-0.32675925926207383,-0.5140211656958853,-0.6807865234885117,-0.40720880769855006,-0.42396042531189115,-0.8087420173729287,-0.5223797107092127,-0.28710538631988924,-0.35502053527417343,-0.6224927596655822,-0.2516265386748442,-0.04931837396924995,-0.0007116701732030995,0
18.35,2.175,2.975,6.25,8.675,6.925,33.575,14.8,1231.0,131.0,187.0,374.0,577.0,441.0,2364.0,964.0,20.0,11.0,18.0,13.0,17.0,19.0,18.0,20.0,-0.6095991018259941,-0.26678876569466314,-0.1563084078016943,-0.20690163706777376,-0.24079213382634068,0.010092112729651439,-0.0033614753080644737,-0.027847454108713515,-0.5092107205057242,-0.36405239603472506,-0.4664444850065561,-0.36600466627760303,-0.3605998063228402,-0.3107553636282499,-0.2864907461601632,-0.1577704131923051,-0.8037687753676377,-0.46318310243631455,-0.15945206858712951,-0.15843071133799985,-0.556008511571988,-0.35685704235543897,-0.42928828981483486,-0.25516663701412534,-0.6982007841684598,-0.20356800520463866,-0.20453494926919205,-0.26209296746870187,-0.512832657401392,-0.2536341366759877,-0.2913090243982629,-0.1111937451376973,0
17.575,2.4,2.8,5.925,5.175,5.575,29.4,11.025,1216.0,153.0,169.0,402.0,311.0,321.0,1788.0,671.0,23.0,14.0,12.0,16.0,15.0,16.0,18.0,16.0,-0.7352051127955028,-0.512729931753058,-0.22610142015160228,-0.023774859819138582,-0.35025934210441345,0.09227211043508551,-0.042013996152583194,-0.1416650009996416,-0.5725643984601425,-0.3317546500179874,-0.5240774387791618,-0.3125123630683041,-0.520486897967219,-0.39799480010282057,-0.14256413073847513,-0.29630568269503843,-0.33817475061515273,-0.33470015517515467,-0.3245149976482235,-0.09612919662600881,-0.2687794574624704,-0.23289175398403897,-0.2654296704782918,-0.006151154511747494,-0.5209702527287244,-0.5555159681112949,-0.2504786955915611,-0.13911490581011185,-0.2655126861559891,-0.2626848905036448,-0.19416786391437685,-0.023009898807391845,0
19.9,2.575,2.2,5.825,5.9,7.4,25.225,10.125,1312.0,162.0,133.0,391.0,347.0,371.0,1638.0,631.0,21.0,16.0,12.0,17.0,13.0,12.0,18.0,18.0,-0.8178601147980311,-0.6234523482406422,-0.2887475165918348,0.005879109017925622,-0.4647384061929645,-0.161270477789047,0.06103989633166182,-0.05750439437283765,-0.32827615033862495,-0.19895404409619702,-0.154567241029512,-0.21966097740361828,-0.4544253263026381,-0.2228532392008025,-0.2324571933165586,-0.3664813549649774,-0.3587235971439916,-0.2472032002461889,-0.5009733433406383,-0.26823888713276334,0.08692309371407149,-0.6561936053655515,-0.07666514299301656,-0.3541922046869974,-0.5415072280509381,-0.5689641517519309,-0.4412809942234474,-0.2267958626663638,-0.4840204388614308,-0.3111060994136433,0.013451697664858653,0.02712279776530331,0
22.25,2.275,1.95,6.575,6.9,5.9,16.725,10.175,1489.0,130.0,127.0,417.0,444.0,403.0,1055.0,612.0,19.0,13.0,16.0,16.0,16.0,18.0,17.0,16.0,-0.6042373594130381,-0.42077514678302524,-0.15714846116688527,0.1296991789003493,-0.4188423242880975,-0.5057900331424419,-0.37514889675934393,-0.32215410092464963,-0.36110389558582817,-0.08338156650979862,-0.3896034868368173,-0.25402486702097393,-0.5816618073674134,-0.5695468560731856,-0.4477834339364863,-0.42637524297840695,-0.6836013236528262,-0.5052808994345416,-0.2619943873589451,0.12945406235451026,-0.4122194792929945,-0.46339634424409076,-0.3679566133905344,-0.24461453168731243,-0.6053162297973338,-0.5827624296279743,-0.4345290823980489,-0.234228759868891,-0.518095160751778,-0.5664545541351218,-0.3642470168521276,-0.4030099861665217,0
19.975,1.95,2.55,7.125,8.0,4.675,21.825,11.175,1407.0,120.0,179.0,480.0,509.0,292.0,1410.0,599.0,17.0,15.0,19.0,18.0,21.0,17.0,18.0,17.0,-0.7196353073442332,-0.4715173662379583,-0.45007509604381774,-0.18234796901271833,-0.3385374564729221,-0.23151565967649104,-0.06045373545144479,-0.039174875791834686,-0.3873616306542075,-0.1461920645758397,-0.08180241291296114,-0.16498147943500013,-0.5765105774425852,-0.38058980799432446,-0.17361667520842802,-0.24537762368492033,-0.5906635729019513,-0.4991916038419773,-0.29370013654657245,-0.33430603299582123,-0.5146672408774796,-0.444428355200478,-0.33781526927754246,-0.19591305254792807,-0.691624426775029,-0.39177860144079635,-0.6145630975194653,-0.49525199062932646,-0.3942059691238463,-0.3712662983483649,-0.5446745916410912,-0.3337119780302962,0
19.075,1.95,2.5,5.95,7.975,6.95,28.1,12.125,1285.0,124.0,158.0,364.0,491.0,427.0,1778.0,750.0,17.0,16.0,15.0,18.0,17.0,11.0,18.0,18.0,-0.48953062842174205,-0.1717670375760556,-0.3308236112877007,-0.2643290222717904,-0.20200275775631477,-0.04351226520043651,0.07969133465027604,-0.19024475492447607,-0.18431554006704426,-0.1526060221859694,0.05690813002130559,-0.13184097513466309,-0.21292861642936867,-0.17388479608396418,-0.25887003858724195,0.1386614575763261,-0.3221460156765461,-0.25124144536201004,-0.14150215972836783,-0.1534912200649418,-0.08420340362997522,-0.1606811140698046,-0.1070665702494473,-0.4528921223594379,-0.3671104383872312,-0.35176965534820653,-0.20575414440113735,-0.4102933283097041,-0.3322540177504729,-0.13638203905856536,0.028342161359829095,0.02123606437430527,0
20.125,2.125,2.7,5.9,9.675,6.95,31.2,10.675,1195.0,145.0,156.0,355.0,701.0,360.0,1990.0,720.0,15.0,18.0,18.0,14.0,20.0,13.0,17.0,17.0,-0.5957617158469936,-0.7669258141025483,-0.48209320253707205,-0.3550666800891637,-0.3518820554757532,-0.17785380734446665,0.007888518982938655,-0.18364085844540445,-0.257694099711192,-0.26314648084901043,-0.12187806850708474,-0.26186259191429834,-0.181157695030967,-0.4678231926390519,-0.05165331370332721,-0.38516010562130704,-0.6331851493215203,-0.2164025164636361,0.021959485495507556,0.012870271041166958,-0.018080157804904993,-0.3160728354444377,-0.13782670005579445,-0.25322937494794967,-0.446308694508392,-0.3476542715091272,-0.21604328240593526,-0.14481324519600355,-0.5861642724383098,-0.261521817606378,-0.3097564040640966,-0.13589573847412809,0
33.275,3.8,4.55,7.375,10.1,11.35,49.6,21.15,2134.0,242.0,250.0,435.0,643.0,551.0,2886.0,1333.0,23.0,14.0,16.0,18.0,16.0,11.0,14.0,18.0,-0.7393546656331181,-0.6343265966861129,-0.7003764686989272,-0.3485641933004865,-0.3078292292879432,-0.1666608437472899,-0.25934609579673074,-0.4869320900499526,-0.36410418421839646,-0.3900422103285284,-0.3191865712519515,-0.4298471988579807,-0.32826273024896485,-0.37645973180755676,-0.21827016253922363,-0.3734979449189591,-0.4270377073891683,-0.2918115524130345,-0.11460003201249938,-0.1609922570843678,0.11801014543933028,-0.2610133618307523,-0.37972530628127715,-0.05144972094883653,-0.2912022203461756,-0.14763334161958225,-0.4716338006549494,-0.3309280192763101,-0.48404794795768435,-0.35677162120496864,-0.4255652603257157,-0.37735793989069577,0
27.425,4.65,3.875,8.4,13.975,27.975,84.425,43.2,1884.0,299.0,237.0,490.0,964.0,1731.0,4846.0,2730.0,19.0,20.0,18.0,15.0,22.0,16.0,19.0,21.0,-0.9317853311146143,-0.8489416240053734,-0.5607569908639829,-0.44013114992046004,-0.5349953892387517,-0.2865976720123281,0.0893120497328415,-0.1661287831089665,-0.32398012450373237,-0.23844935916266077,-0.06248287618842385,-0.3758399755710087,-0.2599181619939082,-0.30993585084012354,-0.11756777572069423,-0.17751426698991057,-0.6230483522563298,-0.38787630269837287,-0.23865131475301948,-0.251808281514767,-0.4577016708095755,-0.6288612910276192,-0.2584464294140628,-0.5271728233752145,-0.6089397799051162,-0.5219286106037819,-0.3173105578601014,-0.14633083499229146,-0.673038530246656,-0.6206796196226892,-0.1808272701556516,-0.1587470755286435,0
23.525,5.25,4.625,10.225,19.35,32.65,79.175,44.7,1469.0,339.0,316.0,665.0,1212.0,1936.0,4995.0,2890.0,16.0,16.0,21.0,15.0,20.0,16.0,21.0,20.0,-0.10362693738984464,-0.29045965634391946,0.13764158569290813,-0.5062502738773834,-0.37636389461571956,-0.11861607473169372,-0.1343597823826391,-0.30980990979991113,-0.28504588384464,-0.13775419596334204,-0.24396551392388058,-0.2405653247432313,-0.2878614384063232,-0.31081213583209844,-0.33662131873790146,-0.048684999033489454,-0.40071949508342314,-0.09734403386362266,-0.1859834040920114,-0.3335576924630561,-0.25686187362491275,-0.06934024396298433,-0.2606574013387678,-0.26284364525083337,-0.46792639731778274,-0.10222811167434874,-0.042392558904802424,-0.08602517895623428,-0.4292794720924116,-0.10542751917283426,-0.1538199949481077,-0.26010159362020796,0
24.575,3.825,3.475,8.975,11.475,16.925,55.8,27.3,1651.0,273.0,211.0,482.0,644.0,914.0,3463.0,1732.0,21.0,20.0,13.0,14.0,18.0,14.0,14.0,19.0,-0.611951355283527,-0.33435703262160393,-0.37286925282624694,-0.3442674513620383,-0.5395281956681635,-0.04748401408005359,0.07371594089418729,-0.05690871807198528,-0.24242494699071027,-0.03815916180468532,-0.03733171262091283,-0.09400503617326247,-0.09394108549631977,-0.22103019925938303,-0.020980214503133126,-0.11424656636946684,-0.033289485783679365,-0.17288076487670426,0.12709837947091673,-0.18144105859705137,0.1404901557762422,-0.1579576746626517,-0.023585262063904426,-0.0894634272421752,-0.4481015453878394,-0.24393479146604702,-0.11242435792125569,-0.3339211550099205,-0.3988000627609013,-0.08885127668340333,0.019599983422714604,-0.13020100207471297,0
25.05,3.55,4.025,10.775,11.175,17.15,55.025,25.275,1722.0,235.0,234.0,655.0,711.0,890.0,2763.0,1436.0,21.0,18.0,14.0,19.0,22.0,14.0,12.0,14.0,-0.5574584782802976,-0.16876939334770372,-0.2000065120027779,-0.2104990132708863,-0.4648926345255867,-0.18514079942025613,-0.22688041232097053,-0.18577670327707757,-0.27670060777066624,-0.07037927454465226,-0.36143290898959646,-0.26598468777924195,-0.4497981043029231,-0.35317163090635156,-0.5341802630944077,-0.39790312741775463,-0.46954511787243386,-0.3961592112661817,-0.16485486637443203,-0.28378801433784406,-0.21700684715102328,-0.3801065811078252,-0.4421513768743237,-0.449983780742501,-0.27034393114576516,-0.13910693550025244,-0.44838530025794565,-0.4473238842728947,-0.12684939420380925,-0.2262354525616882,-0.1150912654320776,-0.18355301540773222,0
28.575,4.75,4.2,12.525,12.5,20.15,55.05,28.65,2055.0,340.0,290.0,880.0,878.0,1122.0,3054.0,1931.0,26.0,22.0,22.0,20.0,21.0,16.0,18.0,18.0,-0.9514037421815063,-0.6943784718012551,-0.6636929143421851,-0.2602873379196798,-0.736663847246871,-0.5151789083061922,-0.17924273783302505,-0.30538594446795103,-0.5223430067271536,-0.24225822934115301,-0.3500760877708015,-0.12760750040020186,-0.7098700972173501,-0.5544217715202894,-0.7147794814785989,-0.2824224858344244,-0.7071950403166023,-0.42234466967316886,-0.5352339999917477,-0.2912301524158301,-0.515871154935715,-0.45379382995046397,-0.6195091648394866,-0.5588564952210237,-0.3156276780839532,-0.2404441238855389,-0.4790299314432805,-0.2544934210275468,-0.7159346478184265,-0.4845016003786068,-0.5734943818923566,-0.35708106218226404,0
33.75,5.05,4.725,13.35,18.2,23.125,57.425,30.125,2343.0,325.0,327.0,858.0,1273.0,1195.0,3642.0,1885.0,19.0,14.0,19.0,17.0,19.0,14.0,17.0,17.0,-0.7281887087035567,-0.5654260150600748,-0.2072397375257199,-0.23925824642889815,-0.5935098108993221,-0.526963388475963,-0.3115921990962508,-0.36861448367096833,-0.45459731921601276,-0.13364203827975352,-0.3188702774578196,-0.2308118259572538,-0.5998122516933017,-0.5154136761809816,-0.5900248625437828,-0.25905354509004136,-0.7258598314067288,-0.5056055293087459,-0.4872736879074382,-0.5356612667563451,-0.25942839486831376,-0.5349463833020665,-0.4197938577661114,-0.37442833996444747,-0.44933357737520696,-0.5443552467845172,-0.4102110715421845,-0.37500236370711526,-0.4384493844314962,-0.34039161004749663,-0.46634985413099617,-0.30397690501916863,0
27.075,3.725,4.05,12.875,12.95,25.325,61.15,26.0,1763.0,227.0,248.0,857.0,903.0,1440.0,3948.0,1557.0,19.0,14.0,18.0,16.0,21.0,14.0,15.0,19.0,-0.5792782759502267,-0.3780115771474692,-0.2247876597562534,-0.2524194341191813,-0.4556889255891654,-0.300119893295493,-0.26958425206109843,-0.08856879127458497,-0.5092339541306001,-0.29823346396456757,-0.5466334022481791,-0.3494184927798865,-0.7872040749905519,-0.625584214442307,-0.7329900561564906,-0.6101842957160818,-0.7293634863223051,-0.5703926535996489,-0.5477316068534884,-0.3715647848336544,-0.6630685791760765,-0.7594470744560623,-0.7311491581075371,-0.5527197466441486,-0.5272289061152539,-0.35365446344779145,-0.5923298760183162,-0.24867949246651155,-0.2371996179503861,-0.07931561440963736,-0.2737500027280857,0.13428848288247613,0
20.15,3.45,4.05,9.95,12.325,19.325,53.8,23.775,1203.0,215.0,242.0,587.0,823.0,1080.0,3403.0,1657.0,17.0,15.0,15.0,15.0,18.0,13.0,19.0,19.0,-0.5267471327894694,-0.5280678556688194,-0.3861063460990597,-0.3805487123638109,-0.5394308048367392,-0.569188453517163,-0.28536856096609475,-0.3717166743708537,-0.42545685213701684,-0.5184192031316524,-0.4318141961490894,-0.5079342081216512,-0.6002688970995483,-0.5819218496403895,-0.6071501447223362,-0.5484118142729918,-0.6282507530170728,-0.3237227895079405,-0.34736684378538063,-0.28599970548201464,-0.5666504215590747,-0.5307166920926634,-0.6582673446395277,-0.5829502074276426,-0.5647848921374518,-0.3277734722017924,-0.41570474593324397,-0.39033314660007795,-0.875752995258421,-0.5887128374965513,-0.8238894795442534,-0.5662073251247495,0
18.825,3.275,3.95,10.425,12.925,19.175,48.2,18.65,1174.0,228.0,238.0,591.0,897.0,880.0,2911.0,1225.0,17.0,19.0,16.0,15.0,22.0,11.0,13.0,21.0,-0.7090713630128692,-0.4844612767035686,-0.6434438357973139,-0.5002206492989701,-0.4808573639783704,-0.3863975494479151,-0.052483275115674057,-0.26198847878965537,-0.5276702198491725,-0.5024589491502549,-0.3444004050024388,-0.2653204757319329,-0.5047088638219682,-0.7543438824149171,-0.5463011895538699,-0.5511508872626788,-0.6706726917057751,-0.21998100662757414,-0.36907138286099805,-0.4634147714901934,-0.2678459449429201,-0.5999525893500509,-0.5404316032928457,-0.5127271637121675,-0.5286968543614876,-0.5470245967507233,-0.5724257582167238,-0.43747700766812797,-0.5421636271945423,-0.2685735381146183,-0.16989384008862252,-0.17913087347002163,0
19.125,2.825,4.0,10.55,11.375,18.625,52.825,29.45,1185.0,179.0,227.0,639.0,731.0,997.0,3277.0,1801.0,16.0,18.0,13.0,16.0,21.0,14.0,18.0,18.0,-0.4666156644852226,-0.47497521239132123,-0.2924400418755036,-0.34129003433723576,-0.568185832509057,-0.39566552487140866,-0.29174544812660347,-0.24849911377707437,-0.3457565972447486,-0.32374130336709694,-0.2923419878712767,-0.3165219361776463,-0.45836621484250184,-0.5709860082445332,-0.4649947454181832,-0.6019003793157336,-0.7705796426250467,-0.6515457953167877,-0.3825086223826376,-0.12558852477342256,-0.489600278731999,-0.49521152698486964,-0.6108904601474865,-0.5720549667837891,-0.38292433989395464,-0.2600719394689234,-0.10881861019154856,-0.23379472398143367,-0.22750992009355459,-0.21657070964275535,-0.07073916246384837,-0.362177630338852,0
19.625,4.225,4.075,11.1,16.625,35.25,63.55,41.525,1114.0,283.0,250.0,763.0,949.0,1781.0,3608.0,2527.0,13.0,13.0,18.0,14.0,15.0,13.0,17.0,19.0,-0.1851074987383146,-0.34850442265959836,-0.2465863396971938,-0.2709105083134774,-0.638758944030619,-0.6892377520273623,-0.5415475337541051,-0.6407051617114912,-0.458165394361536,-0.3513054167235736,-0.2731812082500583,-0.49799246222397814,-0.6977100401783538,-0.6311887457162457,-0.5183389351415683,-0.5126461491904176,-0.5498080622070299,-0.6601368698352501,-0.5583860409903754,-0.5972157730337737,-0.5247733703441282,-0.7438596370444875,-0.5763725906054641,-0.8142260921487001,-0.2668016026014314,-0.3011767179777969,-0.1430749094572253,-0.33841402301259865,-0.43019178528342583,-0.5343169050115214,-0.24287969036011015,-0.4521062103376456,0
29.425,4.6,3.2,7.775,16.95,33.5,66.5,41.35,1841.0,287.0,190.0,468.0,920.0,1728.0,3398.0,2573.0,15.0,15.0,12.0,18.0,14.0,13.0,11.0,17.0,-0.6628071988780243,-0.41302127368894676,-0.5390478191162185,-0.48215557402362,-0.41057507509996377,-0.3924635546895806,-0.22555477575562646,-0.11757565811947238,-0.3643565493337558,-0.3127578289310464,0.06153154363006362,0.013567721307731657,-0.5560401680772241,-0.5473543816587098,-0.33364301418271647,-0.23307627213405047,-0.3847290415460913,-0.5737240289307052,-0.45014316832018714,-0.48100334695136643,-0.27808384150139437,-0.5147837172360537,-0.43033161541194304,-0.46061457453639587,-0.09198375382853459,-0.20864984229112246,-0.1446633262411779,-0.22441407111548206,-0.5103514646336811,-0.42487150458466305,-0.3731637986516021,-0.309459968576296,0
24.1,3.9,2.95,8.8,11.025,25.2,60.3,39.125,1478.0,224.0,180.0,505.0,655.0,1349.0,3134.0,2324.0,19.0,13.0,19.0,17.0,15.0,11.0,11.0,17.0,-0.33679154066186495,-0.1644438297438222,-0.3314513721095754,-0.3214222703406694,-0.1754353773841005,-0.20388591555360103,-0.08254695787854217,-0.14196854852213558,-0.1154113529496126,-0.3640377959900955,0.14441781544488244,-0.3709629437077454,-0.37521747433148195,-0.43447539278141606,-0.23709843644522513,-0.543589972053937,-0.1395875987149238,-0.16922019563910992,-0.04203550827110166,-0.011749382396676245,-0.15614790849859053,-0.48586162698653695,-0.3334373610192891,-0.44878805836513674,-0.2345469999702022,-0.432491667134873,-0.28935316387565746,-0.20099016850005588,-0.27886904779759764,-0.3023902620614007,-0.27604256773547964,-0.14861095685343614,0
21.0,2.675,2.725,5.825,6.275,8.1,28.3,14.0,1381.0,160.0,150.0,344.0,405.0,459.0,1812.0,967.0,18.0,11.0,13.0,19.0,17.0,16.0,21.0,20.0,-0.5673239253888951,-0.38159904560237373,-0.4392382683311038,-0.3477850726148888,-0.2526041296503782,-0.06560213324859124,-0.3143404056741316,0.08711890801494486,-0.05321505237714213,-0.5538962661647675,0.033889889526145835,-0.34038441895695765,-0.3551135209680869,-0.5589165191178161,-0.14157248240088682,-0.31288546740356554,-0.6704760572334917,-0.5585213717626726,-0.27503631159128167,-0.04504178199219217,-0.16527432905515976,-0.4706611021056863,-0.12877212554742581,-0.2395128790277419,-0.425219958969695,-0.2055705205570038,-0.17417893702881085,0.1827207774732817,-0.5759534162465549,-0.44394199340422136,-0.3664493721644788,0.08886429101346484,0
22.85,4.125,4.25,8.75,9.875,8.975,22.375,17.175,1594.0,264.0,286.0,539.0,649.0,558.0,1536.0,1184.0,23.0,18.0,19.0,19.0,19.0,15.0,20.0,19.0,-0.6794021194936036,-0.4574493619890829,-0.478951674511054,-0.3366768344036202,-0.5757782553081081,-0.329923627027175,-0.3056811536429761,-0.07332246738618879,-0.7198175883424142,-0.5368251622350837,-0.2615664095264017,-0.14286834875386226,-0.5796282869803498,-0.626205713282926,-0.45389164149740224,-0.10314298119545943,-0.6885044864213177,-0.3925634903945864,-0.3031968597209701,-0.1802470625757452,-0.3120562074334083,-0.4569979642576886,-0.2354784322958312,-0.2963211520767414,-0.6398228419036116,-0.3084719561032226,-0.2693799677287784,-0.32101917886834597,-0.6681755643150713,-0.40366712709264935,-0.37369545404284255,-0.37085988593154046,0
19.675,5.75,6.125,11.05,13.2,19.325,47.7,25.125,1426.0,365.0,380.0,668.0,831.0,1164.0,3287.0,1716.0,20.0,15.0,14.0,17.0,19.0,18.0,22.0,17.0,-0.8645278761293707,-0.6960045996481711,-0.3828783605939658,-0.24609163270090398,-0.3134954955692441,-0.2939696276814185,-0.0810559580955111,-0.27156072316391694,-0.40705289055591853,-0.6197852398123429,-0.39792097078374983,-0.4925523446591871,-0.5080614051342393,-0.4822944026202622,-0.3844188188391235,-0.5173545936036678,-0.6061233675386557,-0.5796235789848828,-0.19572765847398954,-0.35377157844838303,-0.37760131435282357,-0.5031979752014011,-0.37611155846471345,-0.45660587048390816,-0.6842185027664077,-0.3852131047521006,-0.40183725043804225,-0.0946778699214369,-0.642881007360046,-0.4649342751065309,-0.4080112788839272,-0.3026487915076206,0
21.35,4.675,4.65,8.25,14.225,20.875,76.825,29.9,1462.0,280.0,289.0,486.0,804.0,1014.0,4304.0,1666.0,20.0,14.0,17.0,16.0,14.0,12.0,14.0,15.0,-0.542824374693161,-0.29878397398030965,-0.2974354577454081,-0.5530260911366501,-0.2565158486093014,-0.12577956128601545,-0.04340604963993456,-0.08234452626772373,-0.19248545105753437,-0.43403658115743127,-0.26543817379659024,-0.13044716827435185,-0.4549806978876842,-0.46853393931343157,-0.43768879948214295,-0.6193341628278713,-0.26702755349256474,-0.28999765316325427,-0.33312434157362897,-0.34397807684598186,0.06941038294696132,-0.29283052807282733,-0.24812495574788948,-0.411541322230191,-0.26004918281649453,0.048460766049729244,-0.1656631720720364,-0.08725990935321186,-0.16870033699784723,-0.33552441826920304,-0.22202767839404672,-0.6202909687254371,0
18.075,5.825,6.05,8.375,15.275,26.325,64.2,30.35,1062.0,380.0,384.0,544.0,858.0,1353.0,3799.0,1649.0,18.0,19.0,19.0,16.0,20.0,14.0,17.0,16.0,-0.33172467027090563,-0.3324669225675789,-0.21042284244406453,-0.390100749345854,-0.7524059679448992,-0.5817538938904923,-0.5860620089633467,-0.5378562202467707,-0.49590948009173536,-0.3262987784889083,-0.4411767327308785,-0.43288362636076616,-0.45021975417734933,-0.18856370971982975,-0.32302682643869196,-0.3908993644929252,-0.28315062515054273,-0.3036394604184577,-0.34057866592425895,-0.4217656287311932,-0.21928199754510155,-0.414323745887013,-0.3543694429146194,-0.3349657898800343,-0.26236516552525285,0.14055432353634373,-0.07458333888545156,0.08957548239630977,-0.18104214510068323,-0.32674669484781377,-0.2942031346515551,-0.24246839027136707,0
16.225,3.3,4.35,6.4,7.4,11.125,39.9,21.375,1158.0,184.0,246.0,416.0,453.0,559.0,2382.0,1390.0,24.0,14.0,18.0,14.0,14.0,11.0,16.0,19.0,-0.8153533921547216,-0.5190523896238243,-0.39903476624332346,-0.2740176084727418,-0.03943170755753498,-0.36684675182522475,0.03540952573331395,-0.2803006902321441,-0.345280008809947,-0.4352713883520557,-0.2363410957442228,-0.37694204213561733,-0.45747268327313173,-0.30318547481229363,-0.36431906960721,-0.24080794248399212,-0.2031371492932553,-0.2781304537482177,-0.17942320627044583,-0.2513084678572592,0.24928630530545606,-0.5763855119000145,0.028659438079004184,-0.2700149185677665,-0.4121167011285763,-0.39250271311597207,-0.28256476121200774,-0.2086491419870646,-0.4871314314673129,-0.23829640389094714,-0.07441435679846964,-0.19716835425887147,0
17.925,2.925,3.55,6.175,8.775,10.125,39.95,15.5,1284.0,162.0,206.0,437.0,585.0,495.0,2572.0,967.0,22.0,12.0,14.0,18.0,19.0,11.0,19.0,17.0,-0.9006196483152084,-0.7222695941994888,-0.4753989843146243,-0.3563086712140017,-0.12272804180091097,-0.17358687166880504,0.06453325295848455,-0.09533456759138134,-0.16026744496746195,-0.2618574993773823,-0.07685134750567174,-0.26300879896907803,-0.4997097886239014,-0.5858161227907661,-0.32130428633165203,-0.3632728593850248,-0.6129767815849396,-0.37865653243627395,-0.309481333378592,-0.1360532343994082,-0.1675680675252678,-0.3719934093827922,-0.3817712285976471,-0.5420164480712074,-0.5156615245558008,-0.3216698375468999,-0.35868307778437664,-0.28677957839392254,-0.2650209277242318,-0.1343551184845848,-0.030034867813448714,-0.34438531632390235,0
12.85,4.175,4.6,8.65,7.525,12.725,43.875,17.85,927.0,291.0,297.0,559.0,485.0,710.0,2862.0,1196.0,21.0,14.0,16.0,19.0,19.0,17.0,19.0,17.0,-0.9086229183017953,-0.6792454682798702,-0.3642263895655961,-0.33241511715722694,-0.4544191377493582,-0.14993139307789968,-0.19867966496167583,-0.29631405041217956,-0.3772910671298857,0.07113753616414921,-0.11030966932697499,-0.16391126030629416,-0.5616265890064068,-0.3952528672484739,-0.4836621250838861,-0.40250697392623647,-0.5215064322265994,-0.3862174706104375,-0.2695524209948295,-0.267396279741668,-0.3627525326820468,-0.5277899741037679,-0.4604563546609172,-0.5297315925773013,-0.6973908735127079,-0.56256001513213,-0.5364541970719138,-0.4826467264011401,-0.6154921271707752,-0.5190182786917013,-0.5635233229340944,-0.5893090272179693,0
15.25,4.2,4.25,8.925,8.225,11.25,48.05,16.375,1063.0,307.0,239.0,572.0,513.0,596.0,3140.0,1211.0,18.0,21.0,12.0,14.0,18.0,13.0,17.0,17.0,-0.7238514936563804,-0.6528930374027591,-0.17363137495606598,-0.23053535459710287,-0.5645976300384287,-0.09909578444599489,-0.21174964539669372,-0.2892843884678461,-0.22945274098037474,-0.023004115873734,-0.2002891164624099,-0.14887402915003742,-0.7065506918161178,-0.5706037445917401,-0.5648311025443238,-0.5307197550797026,-0.3937138448333356,-0.33371844312323734,0.03518543350541554,0.00047035250729977966,-0.32560328289426416,-0.6480456598992372,-0.35718492926145284,-0.4134168087431374,-0.7680285205146221,-0.4568876308166384,-0.46352356578325077,-0.42167755413518987,-0.775431297319942,-0.5062324650749805,-0.5082130894172205,-0.4641930087345367,0
17.875,4.15,4.3,8.55,12.1,13.0,51.45,15.1,1294.0,272.0,285.0,563.0,769.0,809.0,3223.0,925.0,24.0,13.0,17.0,12.0,19.0,21.0,19.0,17.0,-0.5683834268187332,-0.2751505122111802,-0.25410934447546263,-0.3768212621921591,-0.3512691335450473,0.04666901902398664,-0.3129213015943026,-0.1550559172200482,-0.2916870615881423,-0.028000711035686212,-0.20816488381171747,-0.08609655879613315,-0.5679412598333055,-0.35505283983555647,-0.5265830744451084,-0.4923006339813667,-0.39621262035437066,-0.13120326900354765,-0.15109168015287425,-0.2564907719897734,-0.5094711699622859,-0.45288305557741987,-0.3095443701228734,-0.2929700824929656,-0.5024220323546305,-0.382232517018247,-0.20927485973156223,-0.23179097683643207,-0.3940322926284135,-0.19817580351521377,-0.17426049291639994,-0.2040483853303248,0
18.0,4.85,5.05,8.5,15.55,23.625,57.525,26.775,1256.0,307.0,333.0,487.0,1067.0,1423.0,3045.0,1714.0,18.0,20.0,17.0,12.0,18.0,17.0,15.0,19.0,-0.6299587926161285,-0.6133580002133074,-0.3821035383690693,-0.5236440014356128,-0.5263150757023853,-0.4790605091425027,-0.2265376790759889,-0.2399301117167504,-0.44072808258367885,-0.34226543494239225,-0.28673417650680316,-0.2996604437727505,-0.33476478888558237,-0.37806733933680947,-0.4461950667568861,-0.44439284772822246,-0.6835518996799866,-0.6103513025918987,-0.4358589419126251,-0.3981051067979034,-0.3553798988238516,-0.5118707422141546,-0.33470897090114454,-0.4686714647839725,-0.09940412217595729,-0.46405509078245344,-0.1859771404505824,-0.2739032443331097,-0.484897119622264,-0.4033087758629378,-0.42458781434229426,-0.2160538122317446,0
18.025,5.9,6.325,16.325,15.875,29.325,83.025,48.5,1164.0,315.0,387.0,1093.0,992.0,1826.0,4763.0,3268.0,19.0,14.0,14.0,20.0,16.0,19.0,21.0,20.0,-0.30533280020785425,-0.1906028246304183,-0.25256355292155436,-0.2032551282831577,-0.2406895356689659,-0.37264803180225864,-0.18333261848010154,-0.212662826211945,-0.2864710136710048,-0.11640360500327916,-0.2819476591536928,-0.30414933280342704,-0.37862174825812717,0.09744838176531484,-0.11286358433099597,-0.2978830310649646,-0.3061313293945751,-0.48030756728879076,-0.19799353889328525,-0.3734933458382628,-0.39487408333557317,-0.54954692521646,-0.28385071226672437,-0.34299208908547607,-0.3424580364218484,-0.2994863785927338,-0.02318436831079152,-0.17282977183162487,-0.6422484903817705,-0.34926979356731164,0.05547244401349668,-0.10384032514850482,0
20.95,6.45,4.525,14.75,17.925,36.525,75.025,46.875,1375.0,385.0,267.0,871.0,1129.0,1957.0,4740.0,3228.0,17.0,15.0,15.0,17.0,16.0,13.0,16.0,20.0,-0.41827887666399044,-0.42733783972367356,-0.4419402827604049,-0.26500761478830526,-0.41723192333387,-0.5214330243508676,-0.37980665724182394,-0.5855198009514125,-0.0855194295343286,-0.5305682569345858,-0.053640114302900437,-0.6935753982340954,-0.4340838874016045,-0.596146927112061,-0.305008038777178,-0.4891597174199027,-0.4522230906593059,-0.616327279687338,-0.3531227256403084,-0.697710299609931,-0.4281249385808383,-0.5409553089747295,-0.5266621125030414,-0.5025321723764945,-0.5730875404743654,-0.12032004888092449,-0.22288865877418784,-0.31391889062459644,-0.8182294592103667,-0.7067865967224983,-0.6825453360311298,-0.6285209579468596,0
30.525,8.575,6.25,14.6,18.65,38.75,73.275,41.4,1906.0,571.0,394.0,933.0,1019.0,2090.0,4259.0,2363.0,16.0,22.0,19.0,17.0,13.0,15.0,20.0,17.0,-0.5355254786232818,-0.4072505822462612,-0.37342262668528003,-0.19422679966585946,-0.22663785814652743,-0.04422110963034474,0.07719436637015763,-0.396468980712381,-0.2738928941324723,-0.04274185834037245,0.05157511626322022,-0.44948602550868105,-0.5088110824709905,-0.48886899032077874,-0.39500569326834045,-0.5205878832265021,-0.11700695742776492,-0.34713101772065963,-0.1642557345408077,-0.3942857279632715,-0.17841490581697317,-0.3527287923354535,-0.2890872832953402,-0.42506613585937886,-0.3003040066914752,0.0831859216148756,-0.04255620336471339,-0.24403371077838334,-0.31264889803177764,-0.28769475455937166,-0.3386871186698875,-0.30662365784490553,0
29.525,8.275,4.975,11.2,16.45,28.475,74.1,32.175,1772.0,531.0,317.0,713.0,1005.0,1549.0,3293.0,1841.0,16.0,19.0,16.0,14.0,15.0,15.0,11.0,13.0,-0.3990620351478459,-0.5486783977636838,-0.302362389253177,-0.47684522105283944,-0.45909888960760004,-0.3790646884888252,-0.2860920515793311,-0.3615577837385499,-0.47037679505155333,-0.4988695702128123,-0.22285574061331195,-0.2169281908196292,-0.5679153687929636,-0.41255253569522404,-0.4194721467287112,-0.4514278867079662,-0.4506294977145423,-0.48939262528175687,-0.4217530710745558,-0.37565847247187334,-0.16214509693511106,-0.3797941148702768,-0.3780859179778264,-0.5139387312483022,0.012742084063800767,-0.0862647203028841,-0.21087790901198689,-0.25906356391495045,-0.20501137281701876,-0.34329559659580927,-0.1803879341699987,-0.32236285238352547,0
28.875,12.55,6.1,8.15,20.3,31.375,70.3,43.85,1790.0,825.0,391.0,464.0,1307.0,2084.0,4008.0,2760.0,19.0,19.0,18.0,15.0,18.0,18.0,21.0,17.0,-0.4351946665587316,-0.37071181944469445,-0.4288270168433579,-0.20760060104943026,-0.38514870968381026,-0.02965326229429751,-0.5735453358783372,-0.22525588818650394,-0.1872293586706059,-0.31871303096712533,0.08783227732775348,-0.09660934066432823,-0.15890012519518903,-0.45954492279175957,-0.27605362397684663,-0.23432301132039401,-0.5822834659863574,-0.26425099476497776,-0.27115255838662944,0.01431394138287521,-0.5667963271378094,-0.18730226778555473,-0.48703205077118306,-0.38788320297760587,-0.29851615234233836,-0.2368927438341387,-0.1302783108270228,-0.18045183846593954,-0.44222293182272926,-0.07200946690357769,-0.1275239330822545,-0.11006953246353106,0
37.025,15.675,6.55,11.325,17.9,28.05,69.05,44.575,2550.0,1028.0,465.0,776.0,1241.0,1684.0,4417.0,3014.0,17.0,21.0,17.0,20.0,24.0,18.0,17.0,17.0,-0.9551307552828404,-0.7039965803699223,-0.6502680738577444,-0.36259301594594123,-0.3869419002420706,0.019262627340089336,-0.19980758136622936,-0.2938065061174399,-0.560291428627527,-0.0005511656729925092,-0.02142415188080613,-0.10227539150306952,-0.6300360974490036,-0.30278119676166315,-0.48892206797549137,-0.3379278829768923,-0.7165863813816831,-0.5288774155218187,-0.2078015623443583,-0.011020692469694157,-0.33709325672676865,-0.583956541659046,-0.1754597015412357,-0.4862681102370427,-0.40753866988518694,-0.16927415142860916,-0.3188694245326468,-0.11882594858198539,-0.5714232432221684,-0.38629240321888325,-0.06415210807735751,-0.18418314698499505,0
27.525,16.35,8.175,10.85,16.375,39.7,81.6,45.325,1593.0,891.0,572.0,711.0,884.0,2024.0,4002.0,2905.0,11.0,14.0,17.0,17.0,12.0,12.0,14.0,18.0,-0.5189192078843432,-0.46239946574468915,-0.4687147521272193,-0.41673126099260444,-0.3527728882504617,-0.2832770883884626,-0.46608458394675817,-0.26052587390866727,-0.5686198959113496,-0.2110097990487972,-0.210637024422365,-0.24320209347731844,-0.6541781745242274,-0.5048280887298608,-0.6264843182431545,-0.4166914989907308,-0.3709985084348101,-0.40628183542607305,-0.6217798171636224,-0.5215463018078307,-0.42535933933599285,-0.5792161550292525,-0.5663607400581163,-0.6591476001694235,-0.20806335445933327,-0.15454825678248038,-0.29031343788723346,-0.26235803628668564,-0.49684014760918754,-0.336091885393577,-0.20545845254479556,-0.15398396629449834,0
25.6,10.575,6.525,13.05,14.65,32.575,61.1,36.2,1742.0,658.0,449.0,842.0,793.0,1725.0,2964.0,2027.0,17.0,22.0,18.0,17.0,17.0,19.0,19.0,19.0,-0.7085427236358992,-0.6697199386950732,-0.36149999759942175,-0.26528787430284145,-0.4979822988219619,-0.44161598395965485,-0.30063637017165307,-0.24584119042110109,-0.7111216571998257,-0.3513506284478565,-0.11042735579729517,-0.1830876565370845,-0.4023264070562164,-0.42884932373055706,-0.4082244409836171,-0.49847912306932607,-0.4499859522105627,-0.30567149203165184,-0.6971345022098239,-0.46488991635229526,-0.2941959784551231,-0.40137771363670766,-0.542529505350082,-0.4716647112785941,0.11432945609982977,-0.06645098359147394,0.1917629661902038,-0.10514827090977752,-0.1830340660717993,-0.386209432474429,-0.03107722485517748,-0.19988822981664223,0
32.75,4.75,4.875,10.125,12.225,20.05,47.25,32.1,2188.0,302.0,314.0,653.0,825.0,1238.0,2901.0,2153.0,21.0,15.0,18.0,15.0,15.0,15.0,19.0,19.0,-0.6970555185049758,-0.6481792025763304,-0.33745111445069503,-0.39264163155999093,-0.3513631544777324,-0.26247396033733295,-0.1708938906851675,0.00228774645288432,-0.37797824074537106,0.09366461404150381,0.045520226722027775,-0.14694872652525684,-0.6054778571464249,-0.3825201474300088,-0.41769866753420487,-0.3399269005026615,-0.49033988730240874,-0.3739846163349693,-0.4032112044812668,-0.5097794820387654,-0.44919227995296485,-0.15826020322643422,-0.40445149483550963,-0.4696669790238764,-0.44910603718822395,-0.288643934273379,-0.20264765180322825,-0.24144162222036472,-0.6507163964719117,-0.30080836259986354,-0.09886250183817213,-0.006734449963573095,0
30.675,5.675,6.1,10.125,11.9,27.85,60.95,37.625,2103.0,392.0,443.0,658.0,730.0,1550.0,3683.0,2433.0,21.0,18.0,19.0,20.0,18.0,13.0,19.0,17.0,-0.8774052941449783,-0.832613346272588,-0.6065419134573787,-0.3019429333358268,-0.5545245435909506,-0.16058174191620095,0.4247080970187589,0.20934665561760493,-0.5766665183855705,-0.2176922069800178,-0.1250584028046123,-0.020821276709809704,-0.577227162733564,-0.6935697340927666,-0.4646762289719801,-0.5225153238640694,-0.4326533471278727,-0.45766198363376204,-0.5208046595937986,-0.18379554553274322,-0.5197687841716668,-0.5452141330116623,-0.7786311055227596,-0.3251436331943616,-0.30100660210226604,-0.32077640604251856,-0.20196993781210693,-0.14641969102922286,-0.4141172180114347,-0.14237957281591132,-0.1805799305578898,-0.167563628094039,0
23.825,4.975,5.475,9.9,10.35,23.45,57.375,36.325,1502.0,288.0,370.0,621.0,648.0,1443.0,3536.0,2420.0,19.0,13.0,17.0,13.0,16.0,15.0,15.0,21.0,-0.6955558206931984,-0.5988390086139744,-0.46826371053486726,-0.36016706755517136,-0.23843681815460638,-0.43553074894478705,-0.18894212593294857,-0.1815148894897945,-0.5760315113150238,-0.3471150448009877,-0.6057017224941891,-0.351822842583002,-0.5840108473854372,-0.38455311243716045,-0.5939230727014474,-0.5448221034715807,-0.3510678815743071,-0.34687202221071894,-0.44190348723499956,0.0450207674755163,-0.45306378628435057,-0.460417649849522,-0.6007404744178865,-0.06154377842588253,-0.41809747105127204,-0.301929193903241,-0.09744222636753079,-0.17541951580767337,-0.6258632895446041,-0.3393965389687976,-0.4278646999305526,-0.2495775944743087,0
21.975,4.1,3.2,9.2,9.7,22.425,53.025,22.525,1389.0,224.0,195.0,535.0,545.0,1170.0,3057.0,1510.0,16.0,15.0,15.0,16.0,17.0,14.0,12.0,18.0,-0.5302186876902893,-0.4441316362429052,-0.4480256297506056,-0.27225107721217595,-0.03536020828726014,-0.06084739378085454,-0.47397379088725067,-0.13663880990929114,-0.3615049508523806,-0.2628301445256039,-0.18260214918861042,-0.32509076908276496,-0.583839817694913,-0.643433498151138,-0.599370410671797,-0.5762582646731924,-0.44400927131457,-0.3228810474774566,-0.6156284650274021,-0.357437657965838,-0.47085799396652583,-0.5283684562865264,-0.6750752486189141,-0.5338713183751855,-0.5218690470377367,-0.46575119212284827,-0.7256029066806183,-0.4295982467125397,-0.5349667245696628,-0.4050385607220816,-0.43073404263745213,-0.4650427781029328,0
15.375,4.025,3.9,9.75,10.2,15.9,49.575,20.65,1016.0,258.0,250.0,586.0,652.0,945.0,2851.0,1357.0,21.0,19.0,13.0,15.0,19.0,12.0,15.0,16.0,-0.45857296689811883,-0.365710124412985,-0.3194554104465104,-0.2687358130931137,-0.3309499257505242,0.041240375752700544,-0.2740089647553545,-0.29655840195250505,-0.4040092393338381,-0.21411027254566928,-0.46380174431801935,-0.5064192760289008,-0.3587967708326905,-0.34854967825735916,-0.28219525589221345,-0.5094665141229899,-0.42380713550101606,-0.5778110795202158,-0.16050051227123996,-0.4282426524811718,-0.0851815133503067,-0.3690459850961195,-0.20351876909738714,-0.3333979780801216,-0.36812136974249116,-0.37352493029595996,-0.42537771353012765,-0.09685684536845565,-0.3996590413992059,-0.39040936436431517,-0.18853984369550247,-0.43752467556477825,0
26.025,3.225,3.325,8.725,10.175,17.55,52.275,20.9,1759.0,192.0,193.0,581.0,607.0,920.0,2839.0,1228.0,20.0,12.0,12.0,20.0,15.0,13.0,17.0,20.0,-0.6883772255288136,-0.42927699768648436,-0.45826399982896254,-0.2926998081689285,-0.20120073573235445,-0.29316934908677783,-0.2883331765897278,-0.3354825938771205,-0.18440581183089616,-0.09747979826743132,-0.388871629986875,-0.16363866890991507,-0.35829634079095374,-0.25181362333141055,-0.29893152053194777,-0.417873209315736,-0.16954945278066766,-0.11821180356321119,-0.04521979645398058,-0.44139248100245376,-0.02334736504454775,-0.1645316604069777,-0.24701202049619767,-0.27911476393977797,-0.3800216464105693,-0.47354248072270594,-0.42790420636860577,-0.42633833435838075,-0.20040492555877107,-0.28886631084123615,-0.10379857018192531,-0.3991543438803278,0
24.3,2.775,3.5,8.375,9.475,15.75,52.375,21.725,1630.0,168.0,191.0,534.0,655.0,833.0,3415.0,1378.0,15.0,18.0,13.0,13.0,19.0,19.0,22.0,20.0,-0.621133164707177,-0.2698655830966212,-0.268499162409868,-0.28672496573030154,-0.6189242282438306,-0.5640852917233347,-0.5281282857428469,-0.47382535196746567,-0.2511538329246756,-0.3347888087301639,-0.3623768217112275,-0.251554431599134,-0.6005502073944147,-0.5483374888353874,-0.3605019593337288,-0.3181673843305159,-0.43623937980474314,-0.26142318737973724,-0.05138341570596587,-0.24464213101494994,-0.09884600326104674,-0.16296944425511808,-0.08495738875270559,-0.32484114583508894,-0.4389904303096694,-0.2229489869394999,-0.32852152009813335,0.06756772447880749,-0.49410944802774265,-0.19899457803167472,-0.04501880430153411,-0.18593670318058347,0
23.375,3.9,4.775,9.45,12.45,20.55,47.25,22.8,1521.0,197.0,313.0,615.0,767.0,999.0,2617.0,1385.0,18.0,11.0,16.0,17.0,12.0,13.0,13.0,15.0,-0.6014098258408828,-0.3086739107095912,-0.23057576328645354,-0.3830449727461182,-0.08569902098888023,-0.26577161967213797,-0.31016706335492505,-0.07520733702638824,-0.25753931908389227,-0.29704619657185277,-0.20192461630529454,-0.2179630281364516,-0.29301959202515415,-0.3344637445395942,-0.16178334882476014,-0.38980317574111273,-0.4983675957670034,-0.3922720652425667,-0.44652314017738076,-0.30725835362657844,-0.003520790264078946,-0.1501388314502159,-0.25859732432862004,-0.23095108589697852,-0.36924820662523933,-0.33106161549955043,-0.27128395718913945,-0.1781198197875793,-0.5184047824363023,-0.39014718087410294,-0.35512480329123175,-0.22448535418801685,0
18.325,2.95,4.125,10.2,8.8,15.975,55.85,23.575,1134.0,163.0,261.0,663.0,552.0,971.0,3726.0,1450.0,19.0,16.0,18.0,19.0,19.0,18.0,21.0,19.0,-0.2510973049894895,-0.0027209953019846963,0.1477385719436024,-0.3205117260509207,-0.21954380005210766,-0.3265768537506265,-0.303196175158867,-0.09012873386344178,-0.23770400542102826,-0.17860702484175445,-0.12875367402825175,-0.08544248470810402,-0.40254027527320807,-0.28591891987688367,-0.11598025471739144,-0.08973134206695119,-0.4598580641334781,-0.29640600301518016,-0.1469285015646992,-0.07344115697964433,-0.2679776892666866,-0.3179508274985068,0.050293172494410725,0.15528808707104885,-0.5130158368350098,-0.7379976460039909,-0.23981519172215449,-0.45983144308475843,-0.5219669597761588,-0.5267589650274299,-0.2536015226894253,-0.37289845169435104,0
20.525,3.2,3.2,6.4,9.075,19.025,47.375,23.2,1266.0,184.0,185.0,431.0,568.0,1276.0,2961.0,1523.0,17.0,17.0,13.0,15.0,18.0,21.0,18.0,16.0,-0.5534996459075945,-0.28641622047299425,-0.1723949351231958,-0.22331516424103498,-0.3912579330598371,-0.4153081674375602,-0.5349215044888663,-0.16717498529285002,-0.20038575143713155,-0.14827675858826436,-0.4168120543560298,-0.16967990089527915,-0.631405654124892,-0.4449493454320377,-0.3286942859283753,-0.3292270832506626,-0.5517344160963419,-0.40781934332162545,-0.2856960319588006,-0.17553065274226187,-0.5848194459985881,-0.404436043588103,-0.4564637642303884,-0.3567633528120076,-0.40070708450319037,-0.32066024304937685,-0.2500695233306344,-0.32407471403125576,-0.3877137961344669,-0.19984971724545322,-0.038341688463170216,-0.3264488841608907,0
23.35,2.95,2.75,6.175,8.85,14.425,34.45,12.0,1691.0,185.0,170.0,414.0,556.0,883.0,1900.0,745.0,21.0,14.0,10.0,19.0,22.0,17.0,13.0,14.0,-0.7945254096818927,-0.19511547433917795,-0.11922111846071769,-0.16602091688003454,-0.5614421400207088,-0.5020038583439694,-0.26867119833646497,-0.22761780272554621,-0.2575210573760815,-0.036884171101788446,-0.39179242194787517,-0.13097096771425773,-0.3097438160812157,0.03608229571191385,0.18541020271065145,-0.3469590218361448,-0.5717436873229964,-0.5678734494541556,-0.27320773164441814,-0.2163059727233995,-0.350324535923432,-0.06127589396240173,-0.3039173492954133,-0.629334833131848,-0.22612186833845488,-0.32213187614458927,-0.31025874439387247,-0.35521120836059816,-0.4027805551809225,-0.25301412345129104,-0.0029162844046528606,-0.2809288101264507,0
19.475,4.075,3.125,6.375,8.55,15.95,33.375,9.4,1189.0,273.0,177.0,387.0,527.0,776.0,1887.0,522.0,13.0,20.0,16.0,16.0,17.0,13.0,13.0,13.0,-0.28278003382012895,-0.25350658012457894,-0.3094495983765664,-0.2158957782521068,-0.631050770490826,-0.5778704139346681,-0.27654890670008514,-0.25535466921202155,-0.2633852070824017,-0.2387991909138125,-0.34722117287474497,-0.17813601117474542,-0.09305775622081644,-0.2594766886351829,0.1389259353466475,-0.2857209073560055,-0.34503439614330145,-0.14012354881618488,-0.2993344967408104,-0.3497868026043144,0.0034184161369192616,-0.05004604835045429,-0.18685948430989377,-0.3069743249529001,-0.020513664903401698,-0.37831665923951135,-0.21557161062501456,-0.20614842881508652,-0.09931211624207381,-0.16845538412639066,-0.06984515384514223,-0.28859088318696646,0
14.8,3.075,3.025,7.8,9.7,14.65,37.625,14.375,868.0,180.0,164.0,516.0,664.0,861.0,2171.0,802.0,14.0,12.0,10.0,19.0,21.0,15.0,17.0,12.0,-0.27517051969266043,-0.24525129787529285,-0.32917154262575604,-0.44614918635758705,-0.5127587064656226,-0.4181941051309377,-0.2769067596099883,-0.2896241909806225,-0.1535770700030129,-0.30190626281009664,-0.3805750028008883,-0.2589965590076508,-0.4506543363897669,-0.4439341977187337,-0.2147209823786065,-0.2670382105561896,-0.3936673260093557,-0.16645501569283747,-0.3295117596564164,-0.454427531050906,-0.35077042666776453,-0.3254444987168964,-0.32348466057063724,-0.35187256058338723,-0.3786319439956513,-0.26414768920362397,-0.3109847265958876,-0.18106934284726967,-0.21099232591867015,-0.334082103035681,-0.20493287018754178,-0.24199421465625454,0
23.925,2.425,2.9,7.725,7.825,15.45,41.15,16.45,1618.0,122.0,168.0,534.0,519.0,1059.0,2595.0,1047.0,16.0,12.0,9.0,16.0,17.0,17.0,17.0,21.0,-0.637201216242238,-0.3513622935825647,-0.27548650331226565,-0.18956396314465673,0.13502053631584446,-0.21288079619176226,-0.2876012117293098,0.007643406644971192,-0.21928943417619934,-0.0818335888812339,-0.2028011019439749,-0.27753182680374516,-0.5330097807644186,-0.3351312193958041,-0.4148528691979625,-0.265165158966354,-0.5871014494888738,-0.3108568664257281,-0.38020498846249023,-0.32545254346076086,-0.44662911811115313,-0.32240217561614215,-0.22670026799031623,-0.4356981692488114,-0.5301212574697697,-0.4481633700872246,-0.19182308800181205,-0.22624988441506372,-0.3952528173026106,-0.47547233327407956,-0.18012557497703324,-0.35968442508532644,0
24.225,2.9,2.975,7.025,7.575,9.975,31.825,16.0,1509.0,165.0,169.0,441.0,493.0,626.0,1827.0,1038.0,17.0,14.0,13.0,16.0,19.0,18.0,14.0,20.0,-0.576610138653274,-0.27101636137606927,-0.26482038460381085,-0.22127834340506586,-0.45052325163084006,-0.17698093450417698,-0.26047256122872536,-0.10160774186810533,-0.214899372567754,0.11624982857875787,-0.3180422117808809,-0.5565392790002299,-0.350139164590469,-0.18000935819561353,-0.0476112927138434,-0.21401894789251838,-0.4523758232341743,-0.2868710192165181,-0.16168326824619803,-0.31012624594386845,-0.31263754960273704,-0.09358188707145237,-0.1836709871725561,-0.33751795213070784,-0.23561175758561662,-0.38147036370325416,-0.20556005271708222,-0.25016276515386926,-0.518155260218549,-0.42598022933675056,-0.16354525965034764,-0.035229361769935706,0
15.425,2.925,3.75,6.4,7.75,11.05,44.1,14.625,1052.0,187.0,222.0,418.0,530.0,700.0,2548.0,917.0,19.0,16.0,18.0,18.0,18.0,18.0,20.0,20.0,-0.8528892926913942,-0.461896858709683,-0.08206661486823331,-0.05607049282774314,-0.39187286746863614,-0.08569973142907883,-0.3013733090597894,-0.3130986456666158,-0.3403599627674919,-0.15232222560511777,-0.2995569309961689,-0.3695823377784302,-0.502396875948056,-0.22733275254511148,-0.20483077279006096,-0.10710075422506436,-0.5749687277520925,-0.35855912777656573,-0.07271506368679696,0.18478472238401242,-0.30768769400065793,-0.39106364169180685,-0.280468223512654,-0.09074080619117586,-0.4441077033384595,-0.41379213117210667,-0.3272887144941945,-0.5373568888511794,-0.39878022026498794,-0.17975984091026564,-0.23923137497700295,-0.35389512304372717,0
18.325,2.625,2.875,6.825,5.975,12.525,40.925,14.575,1202.0,171.0,180.0,460.0,393.0,794.0,2284.0,918.0,19.0,17.0,14.0,18.0,17.0,17.0,17.0,18.0,-0.7327786563400361,-0.5088365722449415,-0.5316026307159153,-0.39352087708143124,-0.342447434839946,-0.15378472331750379,-0.19084825883447104,-0.2399308884798742,-0.36237538743738595,0.03257233929280402,-0.31542457263661067,-0.5097155800065373,-0.784659399882892,-0.6560509574003388,-0.3921907291716492,-0.32112357310441536,-0.5370144805137156,-0.2543084426858534,0.0821501606790374,0.010286868478315616,-0.396815077785264,-0.1694761781409576,-0.21923787472789782,-0.10216695316595167,-0.19872773977906713,-0.4568602709013561,-0.2419268819619565,-0.5713913883080672,-0.41646608154475134,-0.4347470597479039,-0.2808646660947606,-0.5247194651266651,0
22.95,2.775,2.2,6.45,8.1,15.75,34.275,12.125,1409.0,157.0,133.0,419.0,545.0,922.0,1969.0,741.0,21.0,13.0,12.0,15.0,19.0,19.0,13.0,12.0,-0.4474098117453167,-0.39461876548120567,-0.3988742432248659,-0.4182397833645823,-0.14183763826991758,-0.1282709057264712,0.01200054286102785,-0.25549212419665135,-0.14159675281850495,-0.08163068099986716,-0.031356578124565375,0.014008623699873362,-0.618485700842433,-0.6728663903350859,-0.45463694898736196,-0.32480310985061445,-0.4088365659756574,-0.6363853188074415,-0.22280301871095295,-0.39714104814828616,-0.3306801240741198,-0.06867373147197994,-0.07602692065948806,-0.296491255727448,-0.3171908109191239,-0.2602031478825299,-0.33060612350823904,-0.5090820471407729,-0.19901900005897522,-0.1343332378146114,-0.22766379096894132,-0.29451276567587537,0
20.275,2.675,3.175,7.4,9.65,14.075,40.475,17.025,1375.0,146.0,182.0,460.0,548.0,763.0,2073.0,941.0,20.0,11.0,13.0,16.0,14.0,12.0,13.0,17.0,-0.39799489630493357,-0.2362008043345036,-0.16248129488143892,-0.2509193241825846,-0.04552870905270577,0.10030404436933231,-0.06861304205694392,-0.18515040492191143,-0.17873599273320218,-0.26486314549360224,-0.3608412182467844,-0.1635338506861362,-0.28985777674188296,-0.2902800404224151,-0.28532643785396233,-0.3904957375594527,-0.13231177662254812,-0.4987018439344748,-0.27031535923118993,-0.26972191211854785,-0.14727301626655498,0.25170925261785354,-0.12135318977768843,-0.30961963369977796,-0.07431286424332294,-0.3128012182994208,-0.32771051884842606,-0.2252981100543374,-0.05349850532316464,-0.49836805054200606,-0.13764823097680437,-0.2800236643959457,0
18.825,2.825,2.85,7.725,9.225,13.725,38.25,22.25,1294.0,142.0,152.0,541.0,561.0,803.0,2043.0,1403.0,15.0,12.0,13.0,19.0,17.0,12.0,14.0,18.0,-0.3949634628650327,-0.23012137875701102,-0.039374661344060945,-0.22717560360207265,0.09233206383698528,-0.19369832975045004,0.009418219151357607,-0.3352198690387789,-0.0015246584361879169,-0.09775226207332173,-0.5087019461371362,0.03337401003950549,-0.6131512761823961,-0.2902287553697637,-0.13263862577561672,-0.016168389470609033,-0.4379872238663658,-0.2455968814882188,-0.25825075153407084,-0.2805709005925528,-0.07553271594235829,0.07108879033252512,-0.20265939301601502,-0.2503541325899928,-0.11134762739740982,-0.22389534420473248,-0.15950480977829387,-0.4087053098826027,-0.35933812199599635,-0.13038105421312782,-0.13373367162393254,-0.2948917020874313,0
25.325,2.425,2.825,6.6,8.975,11.95,39.175,21.6,1742.0,134.0,186.0,427.0,569.0,682.0,2414.0,1361.0,17.0,13.0,17.0,16.0,17.0,17.0,21.0,21.0,-0.7744831472094211,-0.5452031536038862,-0.6566475476622999,-0.4139393585480387,-0.06697960748070339,-0.5909179781493599,0.00734419684922154,-0.3067255531870642,-0.3882046792868831,-0.3383356827073248,-0.17272182102964964,-0.3593471899821354,-0.46148295969031666,-0.2704507232344736,-0.26991037254539435,-0.10909908451202653,-0.6300688067719655,-0.21823654788508182,-0.5501477883281715,-0.5178288399143983,-0.23190113865403614,-0.1855900946558195,-0.1874304244223527,-0.25635907578331346,-0.3225112770920564,-0.02178640778243762,-0.11247771689685283,-0.18340247876071047,-0.47618692033569526,-0.24988098346544677,-0.12696947266442304,-0.2982193751621468,0
20.575,2.45,3.075,7.1,9.475,13.625,37.95,14.95,1439.0,153.0,203.0,517.0,647.0,812.0,2487.0,1024.0,20.0,14.0,9.0,23.0,23.0,13.0,19.0,19.0,-0.7777338999586946,-0.5262501579084364,-0.4454135222342545,-0.0851754368824345,-0.17688951434776745,-0.30475356582977076,0.05969334841522768,-0.21437808943761918,-0.2827864934643888,-0.2654640258413196,-0.2439726374688794,-0.25134675269031176,-0.7041381494214749,-0.5213814942873123,-0.31815290684103037,-0.2360993650271399,-0.655761356673996,-0.26539422859089856,-0.028552898183929434,-0.0018387196100997187,-0.3404938115072356,-0.32978982540733165,-0.1657565444468874,-0.2849933356420263,-0.562795016196745,-0.3873998506134643,0.008018288471719554,-0.05088586660657788,-0.5160141283625469,-0.09243374950704225,-0.05892709043861951,-0.03967715133277359,0
16.85,2.675,3.375,8.0,8.75,17.175,37.175,16.175,1189.0,172.0,234.0,534.0,591.0,1065.0,2291.0,1016.0,20.0,14.0,19.0,16.0,16.0,18.0,16.0,12.0,-0.7077213659128729,-0.5333919696388718,-0.18023777485157724,-0.0643881873435557,-0.5793665596823038,-0.49481729428511484,-0.37620426733779677,-0.1871604237393646,-0.3781232737854332,-0.04715334850325994,-0.17711424311703955,-0.11440369270449344,-0.521821648850048,-0.3464202939655666,-0.29956106359498913,-0.09771822728044625,-0.709811120390541,-0.613453992347218,-0.529116560426336,-0.3743933712696625,-0.16265578084967391,0.023941635041365546,-0.10409134906066228,-0.17132517169848557,-0.27494615511410286,-0.5900312831000086,-0.062123672891097055,-0.37867267514751407,-0.3270348940424537,-0.319735196517639,0.003298394633892388,-0.11250021684406497,0
17.55,3.05,3.4,6.925,7.975,14.5,32.95,12.425,1180.0,167.0,194.0,382.0,509.0,870.0,1880.0,815.0,20.0,14.0,12.0,18.0,19.0,11.0,17.0,17.0,-0.5784473950501152,-0.21774498967689246,-0.3047028840737803,-0.11462826559117,-0.10674529969131223,0.3270864369916801,-0.20641526635693203,-0.45467796265652627,-0.12284718531674423,0.006784397701183888,-0.34836395542245063,-0.22301450772119707,0.013557816665765842,-0.20378205367238325,-0.12751846521627883,-0.338188640222985,-0.34590721632947175,-0.1637706992653344,-0.3918565057790004,-0.2653294877365396,-0.15523573794752552,-0.17039699412645526,-0.2209578908356836,-0.21025125550810064,-0.12860337209363992,-0.37227197201067397,-0.23044333589139576,-0.30829831174652417,-0.475660096718039,-0.2784482165623474,-0.3187842934917887,-0.3563750793220397,0
18.025,2.6,2.725,5.125,7.2,13.675,36.5,13.125,1239.0,178.0,182.0,360.0,494.0,876.0,2574.0,802.0,20.0,14.0,20.0,20.0,17.0,18.0,21.0,17.0,-0.577553600144141,-0.40677484691968946,-0.3259494935138306,-0.2443912852618114,-0.5713454378891518,-0.14454761571274619,0.007750345405878128,0.19609209824326268,-0.42736156812493853,-0.05509477032737638,-0.18723246842089686,-0.36424235484921447,-0.49698934461756505,-0.13050132841953313,-0.2077608988404828,-0.33631997821819215,-0.737286690922135,-0.7695921753891325,-0.49236185768155144,-0.5162604124742506,-0.43637890182334205,-0.30004024975480564,-0.32642828706257937,-0.16631266078716067,-0.7866677285761309,-0.5136895941669435,-0.5269290597051496,-0.2837082536045501,-0.49996042345689806,-0.22037726075200276,-0.36473376872095437,-0.3082250660743127,0
22.925,2.625,3.475,6.575,9.775,14.75,47.525,13.15,1483.0,169.0,210.0,461.0,617.0,903.0,2960.0,650.0,19.0,12.0,19.0,23.0,18.0,17.0,17.0,13.0,-0.4744777850264634,-0.32230172987675804,0.08330573981438442,-0.1578943413865445,-0.501573218912015,-0.25184577152752496,-0.2499850739761257,-0.03345045571946393,-0.5304592680594634,-0.470171392422232,-0.14536314279149662,-0.08010079278734955,-0.7670536966776582,-0.6212043351512784,-0.5563769287384241,-0.41959465342304625,-0.628586037928425,-0.7310624583521569,-0.42250406245664407,-0.640319071268865,-0.38376843889488355,-0.32382602788115866,-0.05685784394600939,-0.284080897884904,-0.5179265544127784,-0.3875575148120691,-0.025998518285122292,-0.042725085399861196,-0.10812681408103114,-0.07066625775505865,-0.1263432449421372,-0.19298815361865193,0
21.2,2.65,3.0,7.15,9.7,19.475,47.775,16.175,1280.0,169.0,206.0,508.0,630.0,1215.0,3103.0,1027.0,17.0,18.0,18.0,16.0,20.0,20.0,18.0,18.0,-0.6099412852644995,-0.4582193285561445,-0.27756543468049655,0.027565572281766853,-0.5081482676582623,-0.3046004673214797,-0.0394214670116194,0.02507891173670356,-0.7922872064532787,-0.7497068077005559,-0.3397267523785835,-0.26616412309566895,-0.8328232561006362,-0.7224328405063365,-0.5725192288974796,-0.2863508684520316,-0.7528727546206148,-0.7223722966874476,-0.6015285259723417,-0.3649710064251938,-0.5211497308410606,-0.508429130040612,-0.21000017178401528,-0.3173582564310492,-0.6287300764348367,-0.48061990868178833,-0.23006836935193098,-0.24149055561287833,-0.3519389040240661,-0.3006450709423984,-0.028105194576153732,-0.2636747022308694,0
21.325,3.625,2.925,6.45,7.575,14.25,42.5,18.6,1478.0,196.0,200.0,439.0,509.0,900.0,2606.0,1162.0,18.0,15.0,17.0,19.0,18.0,18.0,18.0,17.0,-0.8235855333824083,-0.5516941683314853,-0.3652513770600184,-0.259572211730323,-0.2387222507889366,-0.17160894812470917,0.0078072445413327985,-0.12164830987638559,-0.2721648678397159,-0.020475952263429534,-0.19678156014886108,-0.09349871378639191,-0.3955576212549886,-0.27532130121513926,-0.21621746806765552,-0.14427324435059957,-0.46779470804384315,-0.30216055032272904,-0.38715961138655014,0.017328809966372056,-0.71513815335584,-0.833892448112467,-0.5793661288831038,-0.4783914596944702,-0.49759667186982387,-0.27538795117394693,-0.5123360008082904,-0.3963498273822301,-0.5810645373784851,-0.3724313402427669,-0.49435700889948,-0.3566171415819221,0
25.325,3.175,4.0,9.175,9.4,13.2,27.375,15.775,1867.0,171.0,251.0,604.0,647.0,780.0,1640.0,1059.0,22.0,11.0,14.0,18.0,19.0,18.0,16.0,19.0,-0.9481196221075915,-0.40676463774999605,0.022032131188794914,-0.11877106979101346,-0.07054607073293193,0.025820302879684214,0.022215999379405,0.06757574857296181,-0.36744784441506395,-0.014440993054638461,-0.1232888757367164,-0.1725010043853143,-0.5556571373122694,-0.28060193770407865,-0.47571707866147656,-0.40315363876075,-0.8565791092280621,-0.6668789011700315,-0.5484238033160573,-0.47322825412733827,-0.4643866025194489,-0.6137346527673745,-0.2872868914973422,-0.34676941997040794,-0.36334862362137954,-0.23964894693295227,-0.3570081709017219,-0.2034504561759531,-0.4877811807725834,-0.31242778286765727,-0.29209705744650233,-0.33113127269071324,0
28.5,5.35,4.0,13.65,12.425,26.0,50.85,30.775,1690.0,342.0,231.0,880.0,821.0,1625.0,3091.0,2069.0,15.0,19.0,12.0,18.0,20.0,21.0,15.0,21.0,-0.4957363543061521,-0.48175642186251494,-0.3250644766031177,-0.45143444621729767,-0.3898299613739458,-0.3764790562459178,0.09495174188579367,-0.13736159240871926,-0.1293401359944769,-0.11473189700618805,-0.17894908955741828,-0.16086715464234635,-0.6358239989532939,-0.5211943796106742,-0.552286601553402,-0.3648925042143719,-0.7394618902429089,-0.6659653300922874,-0.3551691535992933,-0.3395487528247226,-0.7890732741383985,-0.7855379772019331,-0.36390564716158663,-0.25178606161662276,-0.2368847846432231,-0.20985615079644732,-0.19698105800578228,-0.21514199446716342,-0.5218940255322257,-0.31825454697539624,-0.29234613167079593,-0.3721221938253291,0
29.175,5.9,5.35,13.9,19.025,36.475,70.7,39.025,2007.0,370.0,318.0,887.0,1124.0,2229.0,4214.0,2421.0,22.0,16.0,15.0,15.0,14.0,20.0,21.0,18.0,-0.5675104390498075,-0.1915934876243113,-0.20423584394310548,-0.24659090764293246,-0.4077404588609738,-0.31537240214151707,-0.10456550035830482,-0.02085976520970145,-0.2914269730877765,-0.34614670952091864,-0.3169762693234369,-0.23631829424982057,-0.5117439414097225,-0.3878626269392641,-0.6070757190640129,-0.3143398420670254,-0.35201079491133525,-0.5255294650546098,-0.31478270213327514,-0.4542540306200972,-0.5370424080173289,-0.6480554709465196,-0.40829350667983044,-0.45612893421995687,-0.2909924079116525,-0.18624710514674184,-0.0590381877262396,-0.33765984518631803,-0.30970336773286056,-0.2754947396156251,-0.14378063041314018,-0.4211526705163547,0
22.625,5.0,3.675,11.5,14.225,31.025,72.675,31.175,1462.0,332.0,231.0,761.0,940.0,1762.0,4812.0,2060.0,18.0,20.0,13.0,15.0,16.0,16.0,21.0,20.0,-0.6723234257041,-0.46769462147362323,-0.29035119449901525,-0.29960718078319526,-0.3065323536897292,-0.02998214106136198,0.0024375401330676573,-0.33229293543461513,-0.33380023574918416,-0.07558732180008339,-0.0790966407100353,-0.2342544443148033,-0.5941905443767227,-0.3087455416597639,-0.37880522376127307,-0.31735267462486594,-0.546773318485428,-0.31543525976394027,-0.21420816461607906,-0.2587197723702331,-0.5143042131883869,-0.6567821622583776,-0.48076976458909904,-0.6441954477848497,-0.6325254307803703,-0.14105723964712116,-0.17843475963817987,-0.3894186959505861,-0.44514956935044286,-0.12838882475493585,0.04743274036424249,-0.07754828283440035,0
27.175,4.7,3.575,6.1,9.625,19.6,65.425,26.55,1835.0,296.0,222.0,354.0,587.0,1169.0,4689.0,1893.0,20.0,17.0,17.0,12.0,13.0,17.0,20.0,19.0,-0.6988755742235313,-0.549462924931788,-0.2820767292038988,-0.23863357441077337,-0.3955989119286868,-0.016712684231350396,-0.381393451193206,-0.43122247846662465,-0.5106716298675695,-0.10670205652799686,-0.48508346236124067,-0.6089549564784875,-0.3875123271634517,-0.02157717634378496,-0.3539564479933501,-0.4860721995084343,-0.3356437771374979,-0.43752967963359984,-0.2542392103440341,-0.4049539954698858,-0.31098911010366936,-0.2733246708536228,-0.10669792304366421,-0.29733267068452346,-0.6118191573991167,-0.23833859463356616,-0.05320446357018587,-0.10564535304265538,-0.4672394554549788,-0.04890133951422759,-0.1156038827293746,-0.16088479810497838,0
26.475,3.9,3.075,8.375,10.825,22.1,61.375,25.875,1826.0,226.0,172.0,546.0,681.0,1361.0,4176.0,1673.0,19.0,14.0,16.0,19.0,17.0,17.0,20.0,17.0,-0.7464274190884861,-0.7326757381299596,-0.5043007321188662,-0.5404562094045241,-0.39965418069705017,-0.3186471553497144,-0.21059439554560294,-0.26442389393522875,-0.2039769018852173,-0.20156337902843724,-0.058762869001021296,-0.0036187152917630007,-0.5446660951964908,-0.721669235684835,-0.46542936908938204,-0.40163943356711673,-0.6167650880960789,-0.7676190083854577,-0.365056785908589,-0.36661302917718996,-0.4479806648674114,-0.6142094610798513,-0.16474400361486202,-0.3326193619176468,-0.6791060258593219,-0.42629779699551873,-0.29208702007618864,-0.2852793177520743,-0.4067175057842616,-0.47838086928511825,-0.16749432135372458,-0.47764715509924777,0
24.6,4.9,3.9,8.475,11.575,26.7,68.475,38.375,1682.0,305.0,252.0,605.0,654.0,1559.0,3843.0,2580.0,20.0,18.0,20.0,21.0,17.0,13.0,17.0,19.0,-0.5776057452081607,-0.36015975265072214,-0.27932856426717656,-0.26091623032632255,-0.4560632501653537,-0.22233322245900033,-0.28976324362545575,-0.14764735130250906,-0.4226915021781872,-0.20068473157956315,-0.11173810461619486,-0.16459398664117086,-0.6835436098593278,-0.5330209219554691,-0.5214456649848934,-0.5180899500312093,-0.4836383314877234,-0.43831348585297,-0.5017883614345541,-0.3744793830402595,-0.3284647481054521,-0.4979715634125449,-0.36016773732916446,-0.5409457291756432,-0.3396626688868038,-0.36924530778850595,-0.11858379838723668,-0.1199807962871337,-0.7367737747745242,-0.5644956313104585,-0.3232666994838942,-0.22055883465396917,0
20.075,3.6,3.95,8.55,9.1,23.125,64.05,25.1,1403.0,190.0,257.0,566.0,519.0,1278.0,3765.0,1612.0,16.0,11.0,20.0,22.0,18.0,16.0,18.0,20.0,-0.8650952166649505,-0.44071387067289636,-0.6690103942388503,-0.5785995620514858,-0.35778926393691596,-0.43758079468054684,-0.24684441035532168,-0.1517838601754392,-0.6616699039262045,-0.6390979508715546,-0.26660777816259945,-0.226224311338223,-0.32824883906138,-0.10097571363264905,-0.07962233989401643,-0.11068982029929755,-0.40310869305636143,-0.4156450196410462,-0.3985268579843909,-0.00682798653228121,-0.3926653966141476,-0.4521175126371369,-0.46956111603340867,-0.37783809018306186,-0.42687593012097086,-0.34478686485361293,-0.14072795174127942,0.005462141119613711,-0.6195210884067971,-0.33830643162893637,-0.3250373161927801,-0.11179496702878791,0
17.425,2.7,2.4,8.575,8.0,19.975,55.425,19.45,1173.0,150.0,167.0,563.0,529.0,1267.0,3274.0,1106.0,21.0,19.0,13.0,20.0,17.0,19.0,16.0,15.0,-0.715925592554312,-0.13851870842687403,0.09408329332635511,0.0011249741393912376,-0.1849201771036743,-0.1842492729875544,-0.08721277973071295,-0.06745653889065453,-0.3230783680908235,-0.16529870049508497,-0.06331618833534798,-0.299175007154401,-0.45177458417463084,-0.347685727884056,-0.3194929638163541,-0.41770615738752875,-0.9821387362295796,-0.8955944493901727,-0.669800442319013,-0.3541698629045308,-0.5246410951838609,-0.4809860826873652,-0.2467546392823997,-0.31989576739896547,-0.3751515443162237,-0.571667079870164,-0.1917944864791789,-0.39491072908232655,-0.25376348345670846,-0.5996998723433293,-0.2174862169507059,-0.32406358855008127,0
19.475,2.15,3.1,8.85,10.675,18.025,45.9,13.775,1312.0,141.0,176.0,563.0,674.0,1114.0,3220.0,877.0,17.0,17.0,14.0,18.0,17.0,17.0,17.0,15.0,-0.7479874475311291,-0.6103732034677594,-0.5525448232377131,-0.2915436452502733,-0.3393018140919884,-0.269812641566009,0.04537427317732436,-0.3574861900116759,-0.27782090140156923,-0.48536631589001467,-0.14935222885099259,-0.3715518512431763,-0.6960628052555181,-0.6318980706793769,-0.4742465395938303,-0.4288465210098699,-0.705090272698834,-0.4866216630410167,-0.4837105034359624,-0.497415575444889,-0.3567724098469254,-0.2267018249003219,-0.20690470651958875,-0.3203695627820081,-0.4834307044143198,-0.27673852127908066,-0.32581923945892505,-0.47587948685757736,-0.5074771782303651,-0.3141924027573517,-0.18157735292684898,-0.3161530026578693,0
22.475,2.825,3.85,8.375,10.05,16.4,44.2,16.35,1608.0,160.0,264.0,533.0,654.0,1036.0,2927.0,1008.0,18.0,14.0,22.0,18.0,19.0,17.0,16.0,17.0,-0.6650983676169531,-0.45219417367046544,-0.4646983621124221,-0.45120353796902574,-0.41642717938231955,-0.3549732958299409,-0.47462621219352796,-0.3267783680613178,-0.423251597898636,-0.26105688127213406,-0.27151571535213853,-0.24809556245620648,-0.6800917634175127,-0.5343320539054848,-0.35867389045402726,-0.22981696336082408,-0.6392445713918186,-0.4866287330786026,-0.48089036573737254,-0.3016885330020443,-0.6018043699442196,-0.5861665080917691,-0.5051408200816767,-0.11771839309947847,-0.44681331656388296,-0.06932160987455929,-0.49716278261819913,-0.4024567570695549,-0.6496198802890614,-0.4779363683566209,-0.47910080524238324,-0.28504822998487983,0
22.725,4.025,3.25,6.55,10.45,16.55,42.925,13.375,1516.0,257.0,194.0,399.0,727.0,929.0,2460.0,843.0,17.0,19.0,13.0,16.0,20.0,12.0,13.0,17.0,-0.6611804092276944,-0.5407772363114562,-0.33805883621459754,-0.38630307128026053,-0.5415184369720476,-0.3829757565985546,-0.1258619054311639,-0.14630327327139112,-0.39074325579963387,-0.6314960033600624,-0.22373817797735776,-0.29928465696962936,-0.30041072352396975,-0.5422366364634243,-0.02572045939728222,-0.2120637509443454,-0.7668815700678211,-0.6903758318247826,-0.3342777067174119,-0.2582407559865022,-0.1217034558606208,0.0318501281797173,-0.07339282444399611,0.2008021935193215,-0.4946993241580008,-0.5130565326305253,-0.48777861232948344,-0.3914136939738387,-0.33967475271774383,-0.21523089855801406,-0.08254176241099326,-0.04530246342051318,0
21.275,4.175,3.325,7.95,11.725,14.075,46.95,19.45,1504.0,217.0,192.0,447.0,784.0,742.0,2388.0,1253.0,19.0,14.0,13.0,16.0,18.0,14.0,16.0,18.0,-0.4895869303052004,-0.5788785796000584,-0.11767599162699206,-0.3308492389567075,-0.23042623068534993,-0.4273046111499697,-0.1420985929694355,-0.278203724822593,-0.23710297189962684,-0.8197533815672097,-0.16428427306896584,-0.3758588210922441,-0.3134414752837928,-0.4951259068304763,-0.3028346540159632,-0.3380964491682725,-0.6079113171957137,-0.4467138822567025,-0.3166127989908114,-0.08997047373486797,-0.028892507685898308,-0.11148593984493767,-0.1337974615229488,-0.1649933116616633,-0.2036484695601563,-0.4617370813242467,-0.16639311058467704,-0.31216596445459527,-0.6174456835461859,-0.5135890770987858,-0.33919444446721053,-0.17427664433380968,0
22.275,3.875,4.15,8.55,8.825,14.475,42.1,19.0,1521.0,213.0,237.0,508.0,517.0,877.0,2170.0,1154.0,21.0,15.0,13.0,17.0,14.0,20.0,17.0,17.0,-0.7282967396303796,-0.6430824508038574,-0.38516772031567403,-0.2742348856609622,-0.34697420932673534,-0.3054064250073424,-0.31827701877653725,-0.17329215021552732,-0.2756521516480226,-0.27555151727018146,-0.29072488368379895,-0.369896055789133,-0.3730202211771951,-0.19472131653703673,-0.1441825351236778,-0.37331967093366636,-0.2208288713867953,-0.34014153847983203,-0.1630448188931456,0.09239964441364727,-0.2535249717593122,0.0031179884470388473,-0.05884222888891718,-0.020950324545998277,-0.1856066253842257,-0.3377904476372098,-0.3626308994982785,-0.12030370543565011,-0.20004531384196764,0.04234627178200366,-0.31556260612015286,-0.14457580260371866,0
22.075,3.25,3.35,8.95,7.5,11.9,34.275,15.25,1513.0,215.0,212.0,584.0,423.0,761.0,2082.0,858.0,17.0,17.0,18.0,16.0,14.0,16.0,18.0,14.0,-0.9512486978508741,-0.9217827050547258,-0.5954686287570757,-0.3361568864742407,-0.6063250711060401,-0.38384328112765287,-0.43587074957201943,-0.4719754109587611,-0.5063743817655268,-0.15998209191639437,-0.17627191607071369,-0.25749743673372416,-0.7228200350017567,-0.5028123325384238,-0.47863380915403947,-0.48032251513006124,-0.33435139062167524,-0.1549857676384223,-0.38329495643812383,-0.507666889089575,-0.5173012683737704,-0.36250460922491345,-0.3901516276437724,-0.302396754247282,-0.49452972394790906,-0.25985806531961664,-0.4723036035193564,-0.5115525399741915,-0.4655438192133827,-0.31384348513101207,-0.4945169794472027,-0.3507991601960126,0
24.15,3.575,3.325,6.175,11.125,11.95,39.0,19.25,1543.0,206.0,178.0,372.0,753.0,692.0,2413.0,1285.0,18.0,16.0,11.0,13.0,23.0,17.0,16.0,17.0,-0.6614117831486471,-0.5921084716419553,-0.3702370327921237,-0.2960168542861527,-0.4334380760233816,-0.6422755297474387,-0.41886761520787297,-0.37688774858133445,-0.2601097569730903,-0.36229331053850916,-0.3733630289070765,-0.3365702859824989,-0.331222568634755,-0.41511581156059535,-0.4330140642645969,-0.37207781324877776,-0.7249440826749993,-0.43513900812982864,-0.15842476460828425,-0.11092317897594159,-0.23525864939194965,-0.1290579651375834,-0.47053242294622527,-0.2528589304955345,-0.5265525152379351,-0.38479479072649614,-0.48358420113641,-0.19351943044645636,-0.6148278531455078,-0.30021726063281756,-0.4739492178479685,-0.4065780501869233,0
25.95,2.9,3.025,6.4,10.95,14.375,42.0,18.55,1718.0,196.0,181.0,441.0,740.0,779.0,2423.0,1109.0,20.0,19.0,16.0,20.0,19.0,18.0,11.0,16.0,-0.7182064050783536,-0.35551793985345337,-0.019661372112734807,-0.0984412543975588,-0.3258700456169764,-0.1848292764376583,-0.16439766547049578,-0.17201518706790145,-0.30543928458116837,-0.2660416680438057,-0.415889736255734,-0.12564651569600288,-0.4047288796917314,-0.25489595398521275,-0.37317725179466704,-0.020085993689836795,-0.7127656563664939,-0.6944638495577218,-0.32617267840566866,-0.46772648081990975,-0.42416851257754207,-0.3960769953972173,-0.6480869232264492,-0.3311170347804526,-0.40542821700108117,-0.543066798442963,-0.4004647077473749,-0.4669330212698297,-0.5354618099848033,-0.5237151954491698,-0.42998992767812433,-0.4462382142366455,0
20.6,3.15,3.5,9.35,7.45,13.475,42.675,19.075,1337.0,173.0,203.0,640.0,501.0,864.0,2948.0,1188.0,17.0,13.0,11.0,19.0,21.0,17.0,23.0,17.0,-0.76305289984062,-0.4541514776545649,-0.32161539992015686,-0.28360985206986233,-0.20318450828227574,-0.2564446352587583,-0.38001494091714483,-0.1535035012560913,-0.4823576609213548,-0.4641021563542143,-0.18725499385651942,-0.16253708791168442,-0.539580477154799,-0.3106022558671469,-0.20658344766928297,-0.18448882792878094,-0.7559556812117092,-0.2952993585394541,-0.12371647578172713,-0.0627111801020504,-0.435007018890731,-0.26822033816911867,-0.3810751020885926,-0.458033023414466,-0.560075256498418,-0.2941169776023577,-0.24111587091227538,-0.3254944691716213,-0.5057402036868262,-0.17464480777821106,-0.24774090690357758,-0.3387040033248067,0
18.775,2.525,3.5,8.35,8.275,10.95,33.3,14.75,1253.0,148.0,197.0,482.0,549.0,527.0,1955.0,865.0,18.0,13.0,12.0,15.0,21.0,10.0,17.0,20.0,-0.6182739659142474,-0.39672235260855043,-0.2853862611837521,-0.27997101214738285,-0.1799552615433123,-0.11459456297548729,-0.07486289336431,-0.08933139826905935,-0.1822421995785191,-0.2609328287840294,-0.16262697782117091,-0.2578676248676072,-0.29992105351420656,-0.5003282315518044,-0.23388679977624804,-0.4306150654345796,-0.6338045216703001,-0.3368685657187125,-0.3316927405842598,-0.09946789346278685,0.12541155467782528,-0.24612659476828608,-0.13542816248681475,-0.2577034954112849,-0.37094761811888316,-0.3212306411013193,-0.32242937212602246,-0.3032541274541963,-0.2971096228044092,-0.2333655631991813,-0.23496743418863317,-0.24240683927870474,0
13.8,3.075,4.0,8.5,11.125,13.375,33.75,13.35,857.0,159.0,203.0,523.0,671.0,641.0,1782.0,720.0,14.0,12.0,15.0,16.0,14.0,14.0,13.0,16.0,-0.8209554660944596,-0.8072821374748707,-0.6907080415793593,-0.38344612718317833,0.015269864009340486,-0.01396579376125076,-0.1364658994682528,-0.1587752034670581,0.0001355250796046375,-0.15433908489551684,-0.10642673957476659,-0.23326438633308103,-0.3673956104156723,-0.23116803761397692,-0.2911172878185208,-0.2053872333481295,-0.45320534198177886,-0.2738601912695816,-0.4939276963141407,-0.15200329690557365,0.07239284189498962,-0.12039685039073635,-0.2609172156041188,-0.2082666766152162,-0.22141514407010818,-0.48400428404657075,-0.25090814178497656,-0.22285172591600402,-0.18340168379205035,-0.5514244260897294,-0.18472290091494126,-0.2594385216999086,0
21.15,2.875,3.475,6.45,9.5,12.4,31.6,10.525,1417.0,172.0,184.0,359.0,551.0,586.0,1487.0,576.0,18.0,17.0,15.0,17.0,15.0,12.0,14.0,14.0,-0.7398734031680974,-0.4257490808682654,-0.3307132126772786,-0.1747063301983679,-0.25746724840325536,0.02715842557689975,-0.2471645299297274,-0.26390153985310605,-0.20064865066048207,-0.11385518933479993,-0.29330722822498595,-0.47840366443144644,-0.1870199165233134,-0.17336745570425563,-0.2736110822355767,-0.2749629660695344,-0.24521273801030072,-0.2596747952683635,-0.38363485556460736,-0.26740589352887606,0.12275050984541444,-0.3311207173615545,-0.17659952432841847,-0.21710439197795497,0.3934220408279204,-0.5068472677140531,-0.020731584300685366,-0.20918178525647113,-0.05202661903286717,0.0021396768598003846,-0.2554620890358299,-0.16865158894069926,0
25.8,2.8,2.85,6.9,8.15,9.75,25.975,11.475,1714.0,177.0,146.0,391.0,541.0,565.0,1566.0,725.0,19.0,18.0,10.0,14.0,20.0,19.0,19.0,19.0,-0.703525058637002,-0.4292758933296106,-0.24822198855169414,-0.17179898806423274,-0.20653411835261704,0.04259701307835774,0.2930077116619355,-0.15475397643546263,0.08361929658253682,-0.13438394181770974,-0.23376988961978237,-0.1607404531383203,-0.21847050783076744,-0.2347250155330937,-0.12373821513901512,-0.10988265703352662,-0.4334592613679275,-0.05385126596007778,-0.3711787160890033,-0.19287946171997297,-0.4007143341191147,-0.305617880915679,-0.009121397520827239,-0.09043845880350583,-0.32606616747653805,-0.3371495140142154,-0.1938862700332395,0.000507230999536452,-0.20339056811731296,-0.18461304006328397,-0.08167458204191098,-0.29353820006745734,0
