0,1,2,3,4,5,6,7,8,9,10,11,12,13,14,15,16,17,18,19,20,21,22,23,24,25,26,27,28,29,30,31,32,33,34,35,36,37,38,39,40,41,42,43,44,45,46,47,48,49,50,51,52,53,54,55,Gesture
5.4,13.075,6.575,6.35,17.7,33.925,10.925,8.1,355.0,866.0,443.0,429.0,1180.0,2235.0,727.0,492.0,18.0,15.0,20.0,24.0,18.0,18.0,17.0,16.0,-0.48673496718903686,-0.5155393430395926,-0.06860607852457745,-0.15959310225843282,-0.12478358806232308,-0.0790493317841869,-0.23271732898509606,-0.14991812110921549,-0.5144701869451369,-0.013832229085001512,-0.1602040335772245,-0.2524884930073313,-0.5273074991082247,0.020318190626340396,0.015981456610303164,-0.16193575785753192,-0.6012748230941094,-0.177885117568301,0.023609161005290712,-0.039303532854949974,-0.47186086718011855,-0.21843789149254111,-0.14280978635917396,-0.21075537504447464,-0.4820577954765569,-0.37279518329530165,-0.22866401280578127,-0.06577006589566564,-0.1448511340636101,-0.1591365655372852,0.04636230194581958,-0.28043132045974895,2
6.825,13.225,5.15,5.425,11.225,31.275,9.475,9.85,492.0,854.0,320.0,336.0,695.0,1927.0,636.0,664.0,20.0,16.0,16.0,17.0,13.0,16.0,19.0,19.0,-0.46346478809373226,-0.3265833233965448,-0.10766962227912857,-0.11462180471721811,-0.2779553949326337,-0.24695862295185558,0.06269695870732334,-0.2818742988160753,-0.39497661188901556,-0.3461221828447814,-0.32310201181781356,-0.19885865193871324,-0.46280999418840624,-0.3813228521304216,-0.46749776310469615,-0.4415259938124084,-0.07100078617792441,-0.5357442976098579,-0.07931187374168296,0.04313381810082045,-0.5301218473664383,-0.2741871012240603,-0.16457642441138787,-0.10610206153201036,-0.5557546428119019,-0.34832774936460953,-0.30916432302966146,-0.10387140616612699,-0.388551340339054,-0.06741383546719527,-0.1549613219869166,-0.3959352932681238,2
7.175,13.475,6.125,4.725,14.475,26.6,7.4,11.325,492.0,931.0,413.0,283.0,863.0,1808.0,464.0,762.0,18.0,18.0,20.0,18.0,16.0,23.0,18.0,20.0,-0.4210822003020579,-0.14424385978444823,-0.3412859979078559,-0.5095197941855875,-0.7436815134119332,-0.5574899258372619,-0.6941846170108936,-0.35775997074040755,-0.5418272148847512,-0.01394434862704137,-0.10468993572664101,-0.3020291919178097,-0.2116445152769871,-0.12853533798787012,-0.019970383768497885,-0.22127438220740323,-0.38486353505936527,-0.2733419574510097,-0.06646112966845284,-0.30290904289232723,-0.6277869788030878,-0.34495256439297434,-0.3039983798728137,-0.0865463545617802,-0.3719663365883285,-0.16068380109394456,-0.13209879746199862,-0.18452005525651397,-0.48552931268720007,-0.2090844102060884,-0.16449394892723793,-0.36134071726157135,2
7.75,10.9,5.35,4.625,14.65,21.05,7.375,10.75,528.0,739.0,354.0,248.0,1012.0,1320.0,475.0,685.0,20.0,21.0,16.0,17.0,14.0,19.0,15.0,18.0,-0.21504981847010599,-0.2565646918463988,0.12285193970845314,-0.26355116071951024,-0.3579491813828857,0.004410936635554156,-0.12220578207869519,-0.12605860843765987,-0.6865524936809438,-0.2977961233998644,-0.09245897943375304,-0.18402804394432734,-0.07785748074619465,-0.22878215398025512,0.010572543249890739,-0.1877792052818548,-0.7428392729001073,-0.42178797400643886,-0.32154335094735914,-0.12597149237553876,-0.39011464530747564,-0.078871096540879,0.25209574987614347,0.1345362039797867,-0.27285450339733963,-0.12923282291928037,-0.07616149626893357,-0.3845632221571756,-0.3895596643345092,-0.20538323461807736,-0.18975674718944405,-0.36184837254638386,2
7.025,12.35,6.275,4.675,12.775,29.075,10.0,9.75,478.0,806.0,390.0,283.0,750.0,1924.0,662.0,678.0,23.0,19.0,14.0,17.0,15.0,16.0,16.0,21.0,-0.4103884758460124,-0.045847734910177934,-0.08160173644636019,-0.21185506697764833,-0.4909261875151949,-0.3175722635613966,-0.2544853428894949,-0.17602415670317306,-0.6341677223896471,-0.3979227141819564,-0.2869006282870906,-0.15861641139509786,-0.5002157555708391,-0.39922121299842084,-0.43896368333329894,-0.3335570437831221,-0.32437622021443774,-0.2248611530391805,-0.17430898519735016,0.00917333291838485,-0.46419023707294216,-0.4056484937875102,-0.14551880125081815,-0.35210286099650956,-0.2940900785298814,-0.05937259223999171,-0.273984132373983,-0.27221095927199784,-0.5831075653101543,-0.1529379935809972,0.11500479544493403,-0.04661123360132499,2
5.8,12.5,7.8,5.45,12.475,21.95,9.975,8.85,405.0,781.0,490.0,338.0,834.0,1455.0,624.0,630.0,13.0,18.0,15.0,12.0,21.0,18.0,22.0,19.0,-0.4155160550104805,-0.037015410854861604,-0.22822609836480567,-0.2588006592017876,-0.1853477163711414,-0.1610171100935246,-0.03870306025698326,-0.07395536635270336,-0.3557595300041016,-0.04601366757647163,-0.44952805152574354,-0.24441789851941595,-0.45532231967006587,-0.2254704095104901,-0.2857356000449067,-0.33311623172687127,-0.49787733710299326,-0.2837206100442727,0.11385522823714185,-0.09283804047375312,-0.4171163426160906,-0.3005860993150896,-0.20156271670862402,-0.18092508822149428,-0.2395824919136883,-0.07440292714510108,-0.20977824063578074,-0.09446485403420857,-0.6325210163776568,-0.2719678989400631,-0.23065180997561438,-0.08165640260526431,2
7.075,14.25,5.425,5.025,10.65,17.8,10.5,9.2,467.0,909.0,299.0,287.0,737.0,1236.0,681.0,578.0,16.0,18.0,17.0,13.0,16.0,20.0,17.0,18.0,-0.4597808076849168,-0.4558433409350015,-0.15387958902696783,-0.41169115452611543,-0.46698461583774736,-0.5413182923847316,-0.25228565586449164,-0.4480979659452633,0.3639524228505636,-0.653278308493087,0.37792158677624504,-0.5848591065708205,-0.2267855164401163,-0.5297643722196442,-0.13850488145984488,-0.5232174940639313,-0.6730571892718588,-0.32593574124087044,-0.39078802036656235,-0.393275394535468,-0.3190504823551655,-0.0574314207398329,-0.032828572663283276,-0.09161030516580423,-0.3738001340853117,-0.2155657141562592,0.06357097951960247,-0.09552831461557536,-0.6260236919727676,-0.5883288027786527,-0.20782620872471752,-0.04220763259833009,2
6.025,10.6,5.5,4.175,11.35,23.675,9.85,13.425,359.0,668.0,365.0,256.0,825.0,1589.0,688.0,875.0,18.0,18.0,15.0,19.0,17.0,22.0,25.0,20.0,-0.37473687295521735,-0.2636859138319777,-0.04707389160144993,-0.19322660917259168,-0.5000773569313016,-0.36068807462419195,-0.3813638728499624,-0.3273808198741695,-0.280400923577665,-0.48082473990474567,-0.04634164665296655,-0.4430314366950239,-0.3836684142832118,-0.16440268294379673,-0.2857323520102428,-0.2652912301184567,-0.7098845119845281,-0.3644468924609389,-0.29733452228503976,-0.24578862420203218,-0.3194387638699535,-0.17237509141788113,0.0272022744327463,0.15369938475278097,-0.47910523362503055,-0.15002280818413266,0.1488135460488736,0.04120603631069876,-0.6059728939468847,-0.31927672378606764,-0.07551386555830335,-0.13667272420240967,2
7.55,15.85,6.625,5.825,13.575,30.35,12.025,13.825,468.0,1135.0,432.0,370.0,929.0,2256.0,869.0,894.0,16.0,20.0,19.0,18.0,21.0,20.0,26.0,17.0,-0.3865588257458952,-0.2032287079918624,-0.19838477233020863,-0.20379606314726914,-0.6864042624376426,-0.18217124999633297,-0.2015612703775481,-0.20082288386667682,-0.47294064282422676,-0.2233664361985626,-0.33986261546080815,-0.4749288365875859,-0.4858658959703606,-0.5213203868293812,-0.3621303393908832,-0.5558961186032755,-0.6102929729104827,-0.42602082050802514,0.09322734444038751,-0.13751987708234886,-0.7259283631383476,-0.47283043249377427,-0.5039346832157154,-0.15844355665826743,-0.49745648753232197,0.10752137667500479,0.13759884803359432,-0.07049980225547461,-0.5184657234977195,-0.1606659688493423,-0.1235658094207311,0.016938855458243467,2
8.2,15.975,6.975,7.875,14.45,40.15,12.75,14.35,503.0,992.0,433.0,483.0,822.0,2578.0,913.0,994.0,13.0,15.0,17.0,19.0,15.0,16.0,18.0,19.0,-0.23916514833845967,-0.44559579042961106,-0.27212466207549213,-0.49919278060617,-0.4847227972408787,-0.22860264938724964,-0.33617744332805916,-0.3694346868720976,-0.40503590813500834,-0.7488184732097372,-0.2145475852492381,-0.3098963863040025,-0.3811705133669333,-0.38247614633521243,-0.06690150580599853,-0.2210117536150095,-0.2050264065209005,-0.1601039946845165,-0.06900497962662094,-0.3520898664644972,-0.6383759166661217,-0.43718751234167424,-0.35773897942423233,-0.24308224902098757,-0.5198180115401524,0.07994883750130789,0.05073379857253464,-0.13981667956724805,-0.575537210658871,-0.3030861326368827,-0.06297824021865658,-0.2672200677115796,2
15.15,15.55,7.3,6.625,13.825,33.075,11.55,11.425,904.0,954.0,419.0,386.0,746.0,1973.0,712.0,855.0,18.0,19.0,12.0,13.0,13.0,17.0,19.0,22.0,-0.2891581012675977,-0.09975417379568367,-0.14851962736232496,0.08807980217890973,-0.3079228672516471,0.0109147452133381,-0.3442854404334075,-0.2311241746974963,-0.2034210922375385,-0.5642322161837833,-0.061898450427156894,-0.504466543492374,-0.3982605253274952,-0.6509354431684816,-0.46684168742832005,-0.25305234357754,-0.2127926147961365,-0.17244679297363819,-0.2568459896994828,-0.09984227248475873,-0.4091638444975577,-0.26841885262188725,-0.1711161455327837,-0.15586713975682873,-0.3695009534430397,-0.1471797286391969,-0.18334855634143404,-0.11702385233250527,-0.5150122547739692,-0.05309393052229195,-0.23744829100589193,-0.2951538584735292,2
11.35,11.825,5.95,6.7,14.275,37.025,15.2,9.975,718.0,696.0,281.0,414.0,918.0,2415.0,950.0,628.0,24.0,15.0,13.0,17.0,21.0,20.0,18.0,15.0,-0.4096735659374016,-0.1801178036898657,-0.32496701790333965,-0.05601674591506586,-0.33019421045650876,-0.39528974438839204,-0.38578917648757804,-0.35179081988316935,-0.0921945335998979,-0.24220617511737122,-0.45381640365589604,-0.1578806411575454,-0.3971610762889934,-0.23487634789866604,-0.42341431297076365,-0.34063476887170857,-0.4195770366826381,-0.4054772661485425,-0.29257620563516884,-0.14928672334806098,-0.42723078670552356,-0.5317354240122525,-0.22092432161449313,-0.5428874797911687,-0.34185147655379383,-0.32693028116453626,-0.26314101287424757,-0.5117905679240802,-0.22541751301997362,-0.027415011109534728,-0.41621891088724894,-0.20617037674376204,2
7.575,13.225,5.175,6.275,18.175,41.0,12.35,12.1,486.0,849.0,343.0,368.0,1230.0,2717.0,862.0,733.0,18.0,21.0,16.0,18.0,22.0,21.0,21.0,18.0,-0.33980472353192415,-0.15034294540105916,-0.12891230613895,-0.22032554364966928,-0.5574252664329479,-0.5240994306444944,-0.42932519061001034,-0.4769512915821101,-0.5363155131193168,-0.5041985971929722,-0.033947898210974735,-0.14729791961205502,-0.20326123904585186,-0.27253621661681954,-0.045614938145835345,-0.02768499074103973,-0.6021420087085806,-0.1537557826971017,-0.14891426400841606,0.014512297334347222,-0.6579985340371626,-0.2801016355933181,-0.03613042044819367,-0.10540704806367819,-0.6201915039418687,-0.35855961694708216,-0.22398348082159567,-0.09852698402820884,-0.42240978331042195,-0.17613601909094256,-0.23937960346958886,-0.17932392461705995,2
8.25,15.6,6.025,5.975,18.175,34.425,10.75,12.575,488.0,1054.0,372.0,362.0,1150.0,2422.0,687.0,780.0,15.0,23.0,20.0,16.0,19.0,19.0,15.0,19.0,-0.33792328532689875,-0.10723669679969729,-0.00724695590556587,-0.28005049860979,-0.5179085630649568,-0.4967498649342876,-0.13569356372031052,-0.29178523012659685,-0.5356595123292931,-0.3284032658351458,-0.4005057681074431,-0.4057218584591199,-0.3096665199208048,-0.29847938698433213,-0.2141732353705281,-0.4615419465311114,-0.5364565626821172,-0.23783248217833944,-0.18560695435051086,0.04305211739500329,-0.49914336346397886,0.007697545773772673,-0.06210192390790034,-0.011053460529968608,-0.5193192319384364,-0.43647182065055457,-0.1014172521515429,-0.1970904295701033,-0.4843878959945813,0.0065042413980942815,-0.20049430702562454,-0.2061499588266386,2
9.175,17.35,6.55,6.1,17.075,31.375,10.85,10.975,580.0,1177.0,370.0,339.0,1069.0,2020.0,757.0,639.0,17.0,19.0,13.0,14.0,17.0,15.0,20.0,15.0,-0.18283853936710975,-0.17073136017533572,-0.034114866538090594,-0.33576402107605396,-0.9022287608402517,-0.8823201604750629,-0.4755325818603349,-0.2934761138118408,-0.28680040871497436,0.0097953466867228,-0.3542754966579876,-0.18658486986647715,0.003955142824369299,-0.40766438112361103,0.030546223707516286,-0.24307916158327084,-0.45933736882326004,-0.399906072005159,-0.27943410772950195,-0.2862261287054166,-0.5642707478558483,-0.4125395421131108,-0.3154769027551829,-0.18617292469211683,-0.5949929588946853,-0.3283095116008543,-0.11069187201796889,-0.005412295529987764,-0.4824679412501202,-0.18508191734477172,-0.028970120395526204,-0.13525665438972245,2
8.175,12.6,5.475,3.975,14.3,29.675,10.05,9.2,565.0,894.0,353.0,245.0,1053.0,1925.0,634.0,549.0,22.0,17.0,17.0,19.0,22.0,18.0,15.0,19.0,-0.554365880555641,0.05500254468761944,0.32540749986797973,0.14139602481009259,-0.8170569665564031,-0.35677728210037957,-0.4304812027688202,-0.3034232072325142,-0.3203473822215212,-0.2129505443316372,-0.2244193193229647,0.22481471206139605,-0.4076284902545734,-0.4093800124197839,-0.3509933909555883,-0.24782293898943436,-0.5627476741996205,-0.1681509192048002,-0.020720368137682927,-0.0033223493750797035,-0.6036945340549146,-0.44937431336207934,0.018290703902474153,-0.11062735546992497,-0.38855934700685624,-0.21522511747439657,-0.022156656051563313,-0.1237233617994119,-0.34687351348510853,-0.08491581862786564,-0.08429557510026826,-0.1964342968783896,2
6.35,11.475,4.85,4.5,14.675,38.5,11.2,13.425,351.0,691.0,272.0,281.0,946.0,2272.0,717.0,921.0,16.0,15.0,10.0,17.0,17.0,15.0,17.0,21.0,-0.17205527782664787,-0.40765194404534777,-0.2831478140219701,-0.07957476720135444,-0.4637977342839334,-0.529742952020967,-0.5090451425488322,-0.4520204673075786,-0.14007368190817823,-0.1998584093867495,-0.26728699449276544,-0.19778116847909646,-0.3031662283035856,-0.06930749106989392,-0.2362454504317391,-0.22230166074956978,-0.38554696047661347,-0.09825400300521274,-0.10583642356276687,-0.2548845437052778,-0.22280486650655273,0.034838747834437134,0.036008688663905296,-0.4008837972978301,-0.40405276999902745,-0.20805402836837192,-0.18551062315744274,-0.12258752720726365,-0.48502437395842174,-0.2655221553379588,0.002357634847821411,-0.1862838447091373,2
9.775,11.45,4.65,5.05,15.6,31.45,10.75,12.675,655.0,700.0,268.0,283.0,996.0,1991.0,682.0,843.0,21.0,22.0,19.0,17.0,16.0,19.0,17.0,21.0,-0.3832964202685572,-0.24165726059490092,0.13358901201860168,-0.34139114493863626,-0.4702350001134676,-0.1675226873906118,-0.28987523221145944,-0.3358884464745513,-0.1549485604207421,-0.23932356624849704,-0.12005925727614224,-0.5297826977254589,-0.3104722745432813,-0.3019253113375411,-0.24447666971075285,-0.341260201544498,-0.5372803979930809,-0.5343883652849749,-0.3712411003360684,-0.2486359275069251,-0.42822230178266246,-0.505939005433918,-0.07138995005738273,-0.23445617089112575,-0.4937451698497947,-0.3627024071666245,-0.0882809922026192,-0.14464697172355037,-0.36630189466791147,-0.11628192718399695,0.031083912372201622,-0.20193740529863052,2
9.375,17.25,6.15,5.75,17.325,29.4,8.2,10.55,618.0,1151.0,414.0,356.0,1117.0,2087.0,560.0,711.0,22.0,21.0,18.0,19.0,17.0,20.0,18.0,20.0,-0.44312556573288536,-0.32292023375737905,-0.14524638109363527,-0.3251694838737218,-0.48613381038170583,-0.24371404829945484,-0.1790329470769457,-0.3772024916184295,-0.5740673825641227,-0.14990544892189786,0.13653943109552935,-0.099172763435446,-0.5502025317258322,-0.3549170874391962,-0.28239103727929044,-0.044754488645620955,-0.4437996502792622,-0.25981472356228363,-0.3974251162170341,-0.4144501279613307,-0.7930065437804124,-0.5096125734236415,-0.38658581482320253,-0.29363100258017133,-0.6570090907100744,-0.5380967693440823,-0.3873086830130123,-0.22123112226449682,-0.3632721349747032,-0.11182564079536339,0.10091516304572253,-0.3141492675517359,2
9.275,13.0,6.475,5.675,12.125,25.725,7.55,11.725,554.0,766.0,377.0,324.0,777.0,1720.0,527.0,720.0,15.0,14.0,14.0,13.0,17.0,19.0,19.0,13.0,-0.15493833386521172,-0.19726408345889074,-0.10272085005424912,-0.3203934649771441,-0.3349572121106208,-0.4813039947172617,-0.19805741288392875,-0.19988136341793541,-0.3708779161467173,-0.2201623635025634,-0.06213467959866912,0.005249336737506428,-0.3300884357479909,-0.26365480027911936,-0.1651185712234598,-0.04585717846980821,-0.4144469960106013,0.031015428406458934,-0.2635733006373828,-0.29591088648048536,-0.43467703921795214,-0.28287619224957333,-0.07921276976667913,-0.1421171690756784,-0.5449671101497784,0.053747903943410454,-0.013764174999212562,-0.2931980213000772,-0.17898707165396732,-0.2127662525493894,0.04932268489290425,-0.35068181974984125,2
7.95,10.9,6.0,7.15,9.675,26.5,10.225,12.375,508.0,770.0,365.0,394.0,555.0,1479.0,623.0,680.0,17.0,19.0,19.0,22.0,17.0,15.0,18.0,10.0,-0.3906212320942272,-0.24870110227417533,0.06387586746077141,0.1483946742886231,-0.706999506649587,-0.5029340355299643,-0.5421968929813198,-0.33742687704983243,-0.28219372979061796,-0.13782970642868872,-0.2838639206830497,-0.06683891003076974,-0.20606899272295565,-0.21517247994769448,-0.3739824135273681,-0.21789550507849165,-0.24225483208506618,-0.027284949731112004,-0.06147256205440179,-0.13093810629231017,-0.23162817617848439,-0.3740846602181936,-0.12567712629067587,-0.15346789204154074,-0.23839800464989802,0.05852002149061538,-0.24585163181973776,-0.28821962993125844,-0.06642723838472865,-0.10792605249898449,-0.3014932326344465,0.06268772073662222,2
8.125,11.975,5.65,6.725,10.8,20.35,8.95,10.35,512.0,749.0,331.0,438.0,721.0,1075.0,610.0,565.0,20.0,17.0,15.0,20.0,19.0,14.0,21.0,17.0,-0.1884032416809431,-0.14656247075321102,-0.03223174878605286,0.07291022344521361,-0.4714726593955408,-0.24228363867270572,0.27477646557564195,0.10863743738578541,-0.32325020916009134,-0.48252015871887066,-0.21295544218532514,-0.4973631135222042,-0.43601701524348746,-0.3879577897524656,-0.3369201181739301,-0.45442124235040776,-0.2806227817295636,-0.10362125916968858,0.0667477259130007,0.012246189226522437,-0.19905124034529742,-0.17994454689941522,-0.2856821098770117,-0.5343221436374828,-0.37201765995837965,-0.017523911681088005,-0.3069833329060983,-0.43693482507951,-0.11390577308134019,-0.026090578761711693,-0.17828667367330125,-0.2097948057433196,2
7.0,12.475,4.25,5.725,11.725,24.025,9.825,11.775,442.0,709.0,242.0,322.0,788.0,1535.0,537.0,737.0,14.0,14.0,15.0,11.0,18.0,12.0,13.0,16.0,-0.16479033903138163,-0.20912720347089206,-0.15218220377394212,-0.2728737724843288,-0.4392126895107812,-0.38880281625584606,-0.5367820817610391,-0.34267732696950637,-0.5479549791140429,-0.41573140648648005,-0.3592407626726757,-0.2466355230221744,-0.1950714184409861,-0.412905615361683,-0.2970714676755948,-0.2883581728216815,-0.3197573826542928,-0.4522388529396472,-0.38601894870136766,-0.1713220745111717,-0.4228538184787082,-0.09325124070233813,-0.2364648109352505,-0.43084339966649804,-0.3512094719017086,-0.5850408949745818,-0.41695259447842714,-0.6545761099099939,-0.3483099125391681,-0.29968978985726713,-0.20920986740844436,-0.26925719569237916,2
8.325,9.2,3.2,4.8,11.05,17.4,7.8,10.575,518.0,583.0,185.0,264.0,636.0,987.0,407.0,686.0,15.0,21.0,12.0,13.0,17.0,17.0,14.0,19.0,-0.31292260737626304,-0.3435633286613341,-0.2414068842023445,-0.18183075898019038,-0.3885752152364264,-0.32710633347449125,-0.26269479112059707,-0.14812118364299337,-0.27178751772479126,-0.1725405485773787,-0.018593036120032384,-0.013217010642580282,-0.2593322589760887,-0.3529758826839754,-0.042476047065504285,-0.15377264324666828,-0.12646687309667873,-0.07028917102751618,-0.016612572026427744,-0.2732991170467311,-0.30841186537040033,-0.44184672136152897,-0.18024121852268007,-0.3795518465507087,-0.3426179632363697,-0.32653750239879786,-0.3073401655500171,-0.4471173139148699,-0.44230630871070425,-0.1756158327293789,0.003678815675997765,-0.11743992688266805,2
7.3,9.55,4.775,4.825,13.525,19.025,8.05,11.5,438.0,606.0,274.0,293.0,917.0,1283.0,509.0,762.0,15.0,15.0,12.0,16.0,16.0,18.0,16.0,18.0,-0.0941394776553499,-0.12362515382232857,-0.1873432049388593,-0.13077236579779936,-0.26958191330147996,-0.23337760265422344,-0.4662525298404468,-0.09903819194016573,-0.5317474691654361,-0.36840145105388683,-0.5578315355822516,-0.5740421913122163,-0.26698353780618295,-0.3351068273833292,-0.3437948086633998,-0.42779068584022234,-0.44239546702912463,-0.019604177811950955,-0.09516789246128309,-0.21059725479631639,-0.33014788036860326,-0.13522142584324728,-0.07457589897879952,0.025241509756154013,-0.35432157684302246,-0.18940923119875364,-0.26038261488695286,-0.45009501024149196,-0.4668916199113197,-0.03292898168538411,-0.006927186561512566,-0.16842830091642735,2
7.125,8.95,4.75,5.3,10.525,23.975,6.875,12.15,476.0,540.0,273.0,301.0,740.0,1634.0,402.0,740.0,19.0,17.0,17.0,15.0,24.0,20.0,16.0,18.0,-0.5185923692112185,-0.27125399907679343,-0.062340395933543374,0.11833045013931197,-0.38984336489903637,-0.21468890271216498,-0.3014471595938001,-0.1538158820457915,-0.5508349500156015,-0.6525780285162782,-0.5281299249631644,-0.25241204334505835,-0.20799858552087835,-0.6393678893374561,-0.3632799061565537,-0.34417181444029116,-0.48317052848500913,-0.09642262326075318,-0.014542196452315864,-0.07330845123476781,-0.5815615643965371,-0.5193564280829863,-0.12487347921747496,-0.07806076413869861,-0.47376312732234543,-0.5944457418084226,-0.30388245386480406,-0.20405320432896404,-0.3621764470158892,-0.30767413276485966,-0.29205125695815587,-0.23747745998396755,2
8.05,10.95,5.075,4.55,13.275,22.85,7.0,13.0,459.0,672.0,318.0,291.0,824.0,1411.0,425.0,868.0,16.0,15.0,18.0,20.0,16.0,17.0,17.0,18.0,-0.15487497950164755,0.036585124659529844,0.04892380526188251,-0.08477508514632524,-0.5339284782529822,-0.47654913954900385,-0.284730500922628,-0.07459865561996828,-0.7157154423532223,-0.8269796182261412,-0.5441966895995136,-0.3640975835200266,-0.410989018832171,-0.4084521111391333,-0.26274574226313835,-0.08571299892397322,-0.3355901956759806,-0.17238917745070229,-0.43400846123503617,-0.14807785162056805,-0.3866828653810334,-0.2997268384670124,-0.05817733588213619,0.046953947680487225,-0.5849666854817083,-0.5468435570813063,-0.270254975532752,-0.23363813422262406,-0.285113472105281,-0.13580953618108246,-0.11816845626127308,-0.39809292113574374,2
8.45,12.075,4.75,5.3,11.4,24.35,6.5,11.2,557.0,866.0,298.0,302.0,701.0,1535.0,352.0,754.0,16.0,21.0,18.0,16.0,16.0,16.0,14.0,18.0,-0.6036114087521055,0.03466915475469527,0.24402971814250332,0.09519994104788404,-0.5242174943627963,-0.276725154325371,-0.1898125642192224,-0.3177393139482558,-0.7702595216216445,-0.825980452136264,-0.6190840984019482,-0.501480455171831,-0.24218100514545604,-0.2822518548650908,-0.3097691539156479,-0.4030259947986721,-0.30632364167833775,-0.039174549602538807,0.007057460812244667,-0.14239160430279185,-0.5281368907793818,-0.318169371417579,-0.48212072856984256,-0.4117083972401608,-0.2904355759347305,-0.2732851477056538,-0.3795094250449343,-0.5174160028572435,-0.571387548607072,-0.292952361107976,-0.3212768524412429,-0.25548233985261454,2
7.55,9.35,4.45,5.275,11.775,26.975,7.175,9.625,530.0,607.0,238.0,266.0,746.0,1702.0,414.0,640.0,21.0,15.0,10.0,12.0,16.0,19.0,20.0,17.0,-0.7681290801222252,-0.41289439290991387,-0.24331401062148217,-0.13291699360449175,-0.24733746624990108,-0.17639163458175158,-0.018399557504614875,-0.049549780810752245,-0.4061645192348145,-0.5582036246825265,-0.44398241583961096,-0.4916562916634053,-0.0869058354351715,-0.5368939189475352,-0.19292129794601837,-0.537284954647369,-0.39594928884357405,-0.07080275325636917,-0.007264516644279118,-0.15577703541559754,-0.2592293368302102,-0.19121753915343426,-0.10593811579071183,-0.3502849815837704,-0.29390729032768387,-0.23371456521143197,0.10485268608643789,-0.13799781973065575,-0.5591061676872733,-0.2607984516667907,-0.0789615538989409,0.13656037547062932,2
10.625,16.975,4.25,4.9,13.0,23.95,7.15,9.9,628.0,964.0,233.0,266.0,808.0,1611.0,471.0,670.0,15.0,14.0,16.0,14.0,15.0,20.0,17.0,20.0,0.014172576639736307,-0.3909880011894539,0.08129554732174712,-0.10809290177455061,-0.11583328499304342,-0.22494409502997115,-0.26407956983807046,-0.2610921063372817,-0.18391991034553987,0.04148971797668331,-0.33752567931657984,-0.4159774400707284,-0.15767979828711137,-0.17948010877501777,-0.28045398066278987,-0.3450448310902957,-0.4194679150386035,-0.030365792499232856,-0.17363215327146128,-0.21861095794467536,-0.43278779391400485,-0.04463399489074205,-0.012365651205565193,-0.38780455113641826,-0.6366489482387274,-0.4210318304574912,-0.43859158620984007,-0.4305740393514426,-0.6917260636817434,-0.4774225716686931,-0.5116035515715879,-0.13529905839202402,2
7.25,12.6,5.275,4.575,8.275,16.575,6.525,9.25,419.0,736.0,350.0,291.0,498.0,1041.0,386.0,636.0,18.0,15.0,19.0,15.0,15.0,16.0,15.0,20.0,-0.048250717657217876,-0.1398609669874459,-0.15068502083463464,0.21101400595731992,-0.06464503313055561,-0.1740552520243142,0.07085379161021442,-0.13402106021755494,-0.49809856489061677,-0.06433962704259416,-0.08044574368400621,-0.24992192749135722,-0.5564495479102133,-0.3857381325955951,-0.44052132077345885,-0.5986882702334203,-0.17378216079406325,-0.20489468066503397,-0.22709008409816395,0.15457804314134205,-0.24307013416799036,0.03988232813745752,0.040758542944435254,-0.27508757880143353,-0.39388304716857714,-0.19721035954316954,-0.2274027632392742,-0.4395072334788099,-0.5437400096290967,-0.2991757015756313,-0.33190582953520964,-0.2753741315699054,2
7.425,15.4,4.325,5.0,8.05,17.425,6.0,7.9,465.0,1024.0,249.0,294.0,509.0,1017.0,435.0,424.0,15.0,23.0,14.0,13.0,19.0,18.0,18.0,10.0,-0.22834351537735365,-0.07904265442567378,-0.08631143937934559,0.20831516888328813,-0.5603584511924539,-0.3522455593368414,-0.263830596702407,-0.27052027345485363,-0.20839039911187243,-0.16821447916851062,-0.11176057723991165,-0.04276903898365099,-0.5758325736149305,-0.634950186968274,-0.5907653887670555,-0.618028921041873,-0.41893628390071974,-0.24005731355604454,-0.12955690840804832,-0.18329182725178036,-0.22046399000326003,-0.3703889127856945,-0.06996574969065031,-0.29914475734506824,-0.5258288023480865,-0.5111234589256431,-0.05215629076880645,-0.1586828451759769,0.010956308702974406,-0.3709469641441474,-0.0786328658674531,-0.3526491789367427,2
9.6,15.775,4.525,4.1,10.8,18.575,5.825,7.975,473.0,895.0,302.0,228.0,692.0,1135.0,388.0,439.0,14.0,16.0,15.0,15.0,22.0,16.0,17.0,13.0,0.3146222972074412,-0.7194147574428469,0.11014399536401429,-0.21031373989372068,-0.3730986217680742,-0.633182550635086,-0.25616454212437817,-0.32165358417658957,-0.6795912948977537,-0.46538209651848156,-0.2911585207267655,-0.07449544356797101,-0.19614068809486745,-0.27780435871188514,-0.1100310746839477,-0.19242299568429805,-0.40680097667929177,-0.4189105959720825,-0.09022595371476311,-0.43632552009812775,-0.3160065009349142,-0.3690508012927013,-0.19596487113358985,-0.29677835360610055,-0.6503118494909527,-0.4335842591068441,-0.17850522448351955,-0.0019956029612944923,0.02793005400786351,-0.10565965773464656,0.0007434217956832144,-0.12173519521142265,2
11.875,20.5,6.1,4.125,12.625,18.45,7.675,9.2,624.0,1389.0,394.0,231.0,884.0,1195.0,489.0,598.0,15.0,19.0,19.0,12.0,23.0,19.0,20.0,19.0,-0.3403183596375258,-0.36316316518269565,-0.43452281090125,-0.3452177054373476,-0.6518237084775691,-0.5316244800706261,-0.42962813886731077,-0.36311168547261585,-0.5928807723317541,-0.37551104011234676,-0.30331456601987966,-0.1383410067575469,-0.33792806842490253,-0.34545219336812755,-0.39736756201019036,-0.3229511062874101,-0.5426934757541767,0.033613894726701066,-0.13609623361595707,-0.2471873749156579,-0.46782282473544057,-0.2200879773915839,-0.21953811485306712,-0.05981040377315262,-0.40504956969126543,-0.28089651439594426,-0.1264034297744677,-0.27881487409006417,-0.5523189292280244,-0.366732908832082,-0.3503100690540696,-0.47095418864081884,2
9.725,14.475,6.05,4.85,8.625,15.875,6.1,8.925,699.0,940.0,389.0,291.0,556.0,868.0,387.0,605.0,20.0,15.0,20.0,16.0,15.0,9.0,16.0,19.0,-0.5072409688019056,-0.16374637991839297,-0.06946430228603802,-0.1642745927806227,-0.4784932732659679,-0.09519810731317058,-0.18114452362659922,-0.12429932141362894,-0.5427830950339958,-0.45673460408481914,-0.21764263588459845,-0.16636824843656314,-0.42136223075591184,-0.34041818472153923,-0.27969234631515216,-0.31392877574696726,-0.2090762403036452,-0.009792915445476303,-0.19386777353583487,0.16281586507742385,-0.2401251878266145,-0.2088502213732271,-0.3408483749306646,0.07471088289263814,-0.28775532660749986,-0.056933032839970046,0.05897461149602655,-0.19216669178044263,-0.5350393952937899,-0.21035216296455092,0.09795262493760064,-0.09846642077672482,2
6.65,10.35,4.1,3.35,7.85,18.9,4.7,6.875,427.0,577.0,267.0,198.0,506.0,1270.0,264.0,399.0,11.0,14.0,17.0,12.0,20.0,23.0,15.0,16.0,-0.32649860967505906,-0.16728274554633188,0.04500403721713778,-0.20518591512339662,-0.299023118326863,-0.6014649127561024,-0.25143448839778787,-0.3870717419836715,-0.5672192862674764,-0.33304031934791056,-0.056266442443451,-0.07365798481619211,-0.20176850061727522,-0.27013502884409535,-0.4061957076396047,-0.26153920753921545,-0.36360491267121575,-0.18194986362574797,-0.33018378802627896,-0.05926219634886115,-0.4602662134408438,-0.08727200052315441,-0.160346242652505,-0.07729159532276358,-0.4470422195494771,-0.33833278388723714,-0.18588839551742925,-0.20340430400564571,-0.3198528872731825,-0.3933709036705476,-0.11553185575068632,-0.059496200750371,2
5.125,12.225,3.6,4.25,9.8,19.725,4.55,5.275,357.0,813.0,207.0,233.0,590.0,1078.0,311.0,334.0,20.0,18.0,16.0,11.0,14.0,14.0,20.0,17.0,-0.5582336006783817,-0.1472326513250498,0.040750169139788156,-0.044483741270388816,-0.504092234429746,-0.2820403481224859,-0.06632622669678154,0.27483225837688263,-0.3759997995532672,-0.40682337146947134,-0.2963473189747086,-0.07483833140327026,-0.1400513538572864,-0.19926245176257293,-0.4123029156556626,-0.1742929247757925,-0.23028775930313575,-0.23259303747463228,-0.26284788971950174,-0.3593502216041336,0.07014875088555018,-0.23387067640710896,-0.24961797389234885,-0.013908874756545534,-0.8040512818566763,-0.6086164242590146,-0.6377418273650081,-0.31392233046756185,-0.5140077377376752,-0.32369707960261557,-0.341845187913526,-0.2533268801839045,2
4.4,8.125,3.05,3.15,7.35,9.85,2.9,3.125,244.0,431.0,200.0,183.0,555.0,660.0,189.0,177.0,14.0,18.0,18.0,20.0,18.0,17.0,18.0,13.0,-0.07926899161816461,-0.1638560314253399,-0.4492186870007923,-0.246352616864871,-0.007022302723292507,-0.18090099789312938,-0.1476087522983073,-0.0012602819447019784,-0.5917568118949249,-0.2625093620116505,-0.08426286724433261,-0.0710213683772677,-0.1042590277780573,-0.27138569819133807,-0.24040659055194352,-0.30385122624817057,-0.709984030133011,-0.23376727569000336,-0.20974643989362515,-0.2927065738333313,-0.17478041505733619,0.12346877095738691,-0.11281925000678908,-0.04689610849571451,-0.6187757311364231,-0.23016885300009315,-0.018260011276089727,-0.04496809940525,-0.05910699804809032,-0.34038585720439946,0.006788960046111262,-0.04439024547109952,2
6.8,12.675,5.25,4.5,9.15,12.875,2.975,5.25,491.0,830.0,369.0,300.0,610.0,864.0,200.0,355.0,15.0,17.0,15.0,18.0,19.0,23.0,22.0,15.0,-0.2041949717304923,0.10606893313138954,-0.21145835073930247,-0.13570476244112986,-0.45216803724147414,-0.3328156236560846,-0.45806013673077123,-0.39482678934782506,-0.792842723102009,-0.20835828914950932,-0.10698802501056735,-0.18886521211315907,-0.48995132816712716,-0.30915228282040946,-0.030653460331248134,-0.4311862302470506,-0.45380331275338526,-0.21953995745399257,-0.2004005061019627,-0.22845925784228183,-0.42536039628536176,0.17324654396426423,0.07354236807239145,-0.31025428017626594,-0.39232249412600323,0.12993187495307498,0.06855344679444808,-0.30035092542413616,-0.14134205154539548,-0.09316365582383304,-0.2060146331945303,-0.2832306499666334,2
3.625,8.275,3.05,3.25,9.425,11.175,2.45,3.45,241.0,486.0,182.0,204.0,644.0,697.0,142.0,212.0,14.0,13.0,16.0,14.0,19.0,15.0,13.0,10.0,-0.258276457282484,-0.030219297176639338,-0.0030032939581082435,-0.3027116867937158,-0.3427280121360173,-0.34340130042917233,-0.28400212981836215,-0.3843745809207531,-0.3624415780289781,-0.2998384334734504,-0.12058502052678712,-0.2994595770553842,-0.387341621197657,-0.43717982791170434,-0.25072909527472853,-0.2679162874894138,-0.4906588499319178,-0.2623713096983133,-0.16094556807279242,-0.18034594149901173,-0.12977653687106178,-0.24534076104416366,-0.20603914594704517,0.027712589131865955,-0.4298342435586407,-0.36082744209447687,-0.34883580226892696,-0.04581081433572879,-0.678197360381176,-0.6152180002810341,-0.7567355300831348,-0.28869595593828334,2
9.3,10.65,3.6,3.45,7.575,14.0,2.9,7.625,571.0,502.0,238.0,216.0,479.0,800.0,175.0,484.0,20.0,15.0,17.0,14.0,21.0,18.0,17.0,17.0,-0.4169760283730734,-0.26780473835743507,0.18230787493789302,-0.09128997357558212,0.17480252182247719,-0.18478509745806576,0.09047256079506175,-0.44053231788423747,-0.46176126136474793,-0.14603510476243245,-0.3515501217991329,-0.4325514610625026,-0.5458689197892521,-0.5401872310612715,-0.37386731056084366,-0.4080519251284448,-0.18321406488948747,-0.1267906010093281,-0.0913089842458075,-0.07745098431406784,-0.18185630220084256,-0.19339606113951888,-0.2475368566207646,-0.18048447437769538,-0.3475309286018891,-0.10855692234300447,-0.36382624747374576,-0.20806430319471111,-0.8810102259548854,-0.7617452109743073,-0.7942271714833857,-0.5529484304010065,2
10.45,8.7,3.65,2.45,5.6,9.85,3.25,7.45,652.0,570.0,215.0,141.0,363.0,626.0,193.0,474.0,21.0,19.0,15.0,13.0,18.0,15.0,16.0,19.0,-0.4595538889153791,-0.21850322295926541,-0.005549845910948489,-0.1113086393203554,-0.3202822565149211,-0.12982493332133813,-0.38662267167276293,-0.21676426763537837,-0.29020394656887305,-0.14256672970077242,-0.3402479723890416,-0.21962460554781568,-0.13707620447640564,-0.04752215458971566,-0.3977968681362503,0.01549044520606671,-0.2907758022300045,-0.04543040017092337,-0.07384867085448933,-0.23380323679709925,-0.576246064569707,-0.5399580287797437,-0.660271338666824,-0.2651008599191118,-0.6326613044083698,-0.293080578275702,-0.2522720457058916,-0.14080821744111735,-0.48696752960624756,-0.38199136929298544,-0.10099013270989882,-0.28452190378234904,2
5.625,7.25,3.4,3.4,7.475,15.725,2.975,7.2,342.0,434.0,225.0,193.0,508.0,1065.0,179.0,477.0,14.0,18.0,18.0,18.0,19.0,17.0,17.0,17.0,-0.35755405200857787,-0.15937132792457145,-0.2127648823592174,-0.4293122176064266,-0.09259930168705838,-0.029129548374821946,-0.1250809861667396,0.020658795342902374,-0.5797353508495015,-0.23780817711591004,-0.23045784853722764,-0.17350188282301085,-0.1791201109478179,-0.2127786341340896,-0.030537969722967902,-0.42356966037012633,-0.4216063692470362,-0.19362012714694432,-0.15738508470114326,-0.09845309168537186,-0.6138928403926447,-0.11408408391896724,0.03641689434864553,-0.27356570287185583,-0.23298623221135828,-0.04517959188707573,-0.022381381550132567,-0.2518465080046778,-0.5201402361149562,-0.39837406906107514,-0.19427012248386893,-0.3404922133940997,2
8.325,10.75,3.725,3.825,11.1,18.45,3.525,8.625,499.0,605.0,255.0,240.0,738.0,1253.0,218.0,534.0,12.0,16.0,17.0,20.0,18.0,19.0,16.0,16.0,-0.1835462032450766,-0.17616490681679983,-0.17632248262144878,0.03482797517497244,-0.2116639217175018,-0.24953182977443444,-0.19011318105910235,-0.1347440456281094,-0.8864592696997284,-0.7169794011155345,-0.47986518148224105,-0.3223296278595893,-0.28815492797717573,0.16581866329084471,0.13703787173757886,-0.2792843201885106,-0.5300172478330695,-0.22799437013699247,-0.21650063843018358,-0.0766470463521645,-0.5981750861714847,-0.27319799186188903,0.048135358485799654,-0.12424133088572652,-0.19281275071003132,0.0018916952036031845,0.011034788077220886,-0.2675068879643616,-0.34828579525475223,-0.15803920789665193,-0.15704517789747452,-0.1589861017021927,2
8.25,10.925,3.45,2.125,7.875,8.125,3.3,7.65,547.0,697.0,214.0,126.0,489.0,485.0,200.0,500.0,18.0,21.0,15.0,12.0,15.0,15.0,17.0,17.0,-0.459509132294966,-0.28432575635799995,0.042391217980296284,-0.1561246591677394,-0.5347368343371598,-0.26880205869905915,-0.0867539998940036,-0.24550731262530953,-0.17628948426191324,0.031164427803174428,-0.4552354410871542,-0.1329330994672254,-0.2734602572537532,-0.33816424047898525,-0.3556193803378283,-0.342765552361814,-0.47759997685119093,-0.1937779971787762,-0.603020841884788,-0.31004771762181815,-0.3165733679060414,-0.2866179014079687,-0.24238949594490036,0.04202989390836274,-0.4297578485923854,-0.08211579115128081,0.12610680656784973,-0.19572427113647153,-0.8298051795800659,-0.5853173440135744,-0.2265171490454851,-0.15296396498816872,2
7.425,10.95,3.925,2.575,9.15,11.975,3.25,4.675,489.0,716.0,246.0,160.0,611.0,722.0,178.0,313.0,19.0,15.0,17.0,17.0,18.0,19.0,16.0,17.0,-0.5007377612397994,-0.4902787788029333,-0.34969616513778806,-0.41289879534935303,-0.5341754495013524,-0.40049538138633184,-0.2633144962179775,-0.33468604256868534,-0.3745249469455473,-0.2510499192047037,-0.1889848417665942,-0.18715085399593087,-0.497670920006514,-0.48249327739099385,-0.26631548834883484,-0.25278551731617543,-0.6277293131069708,-0.31567808821331655,-0.11455067243844101,-0.3058994450812388,-0.3410126912195464,-0.09872613614463104,-0.25596769173282696,-0.27648045784611075,-0.2241739406987498,-0.07646579295286296,0.011454390978526506,-0.26380650979693965,-0.4464274990675523,-0.3691610537943519,-0.23929428724181312,-0.06910696652353032,2
7.5,10.35,2.9,3.225,9.7,12.65,3.5,7.375,508.0,700.0,170.0,174.0,653.0,796.0,245.0,485.0,21.0,18.0,15.0,15.0,23.0,15.0,21.0,19.0,-0.3017588250363637,-0.0818918302823325,-0.11808182388857458,-0.2390626711561637,-0.47507368351864687,-0.34459956416791354,-0.21619359586940573,0.03657587699487558,-0.23796520450781591,-0.058556447013405885,-0.4091970344974131,-0.274044215814878,-0.17384805720089083,-0.36038114777368097,-0.03459575342864309,-0.4457238982791865,-0.5252001090248686,-0.21037633156213073,-0.17170769030820027,-0.18933829619932666,-0.3350129263396747,-0.024607953081209277,-0.3170903119762935,-0.24877020882945636,-0.5678091050761849,-0.12416065705953258,-0.29487208451285096,-0.3058852012373404,-0.5843076454783498,-0.22211823735450487,-0.549778603963467,-0.49328533146297326,2
9.425,9.5,3.775,3.875,7.8,14.925,3.525,8.975,591.0,630.0,202.0,206.0,510.0,999.0,241.0,625.0,15.0,21.0,15.0,13.0,14.0,20.0,10.0,24.0,-0.43496249619284605,-0.3799167402179921,-0.30207700039749824,-0.16786053674501264,-0.481427290278217,-0.062275310886367855,-0.06298170867484312,0.04944450146148995,-0.38735187943925053,-0.3004435924312814,-0.4806972250165239,-0.2521174143603415,-0.24347003520041804,-0.09813449963602978,-0.37934620162913807,-0.29071439486790246,-0.2772854971428444,0.10343042894869806,-0.20397022529887038,-0.09139830044461894,-0.38535181039975847,0.07098040464774573,-0.195592107985561,-0.06740432331730266,-0.39694507529051726,-0.004064397690664684,-0.2847962394505173,-0.17552286667307063,-0.6037063182917594,-0.26573523503401314,-0.28095263387210984,-0.43051483378348576,2
8.925,10.3,4.025,3.9,8.9,16.5,4.7,8.175,610.0,735.0,259.0,240.0,627.0,1072.0,269.0,594.0,21.0,20.0,16.0,20.0,23.0,16.0,15.0,22.0,-0.6202629641946724,-0.38682553487988686,-0.2781978662088115,-0.40746429632298564,-0.6504970431929307,0.05992222620457574,0.17466817421364705,-0.015157702171215112,-0.631684311763357,-0.4473104251224777,-0.6245261577404372,-0.2401912431507743,-0.4139131083291542,-0.3767245215851939,-0.1575540989569959,-0.35092141202386967,-0.7838494826949229,-0.1741624191054171,0.2257977653022607,0.18864315248409066,-0.5420674394995606,-0.3376384635258176,-0.15067420064305018,-0.13261889769421617,-0.45741758498437624,-0.37057896114019023,-0.27414701361126703,-0.18670145563686558,-0.5345676251163526,-0.1276371153997838,-0.19481616382606615,-0.23304244934690985,2
9.725,9.075,3.675,4.225,10.725,15.675,4.15,8.425,685.0,624.0,239.0,245.0,729.0,1024.0,238.0,568.0,18.0,21.0,12.0,12.0,22.0,16.0,14.0,18.0,-0.6615509738710816,-0.21202272918054485,0.23724171153756288,0.18894379871454406,-0.47205606731586025,0.056637982174749406,0.37727834251771225,0.24675660116802567,-0.4058233954896419,-0.3292250080254918,-0.17197391100056114,-0.29692298207688683,-0.4036183628393756,-0.42773649525169144,-0.18392443752820742,-0.4106633572298362,-0.5699151171378143,-0.25704665401994153,0.05326902778049947,-0.12478450977968204,-0.4937899339508718,-0.4510817740812224,-0.1849075773249364,-0.4515494380776804,-0.4957535863594615,-0.5463591683642988,-0.46217041511534374,-0.305652057177486,-0.3938381300806185,0.42793140623026854,-0.2514183678514134,-0.6141812298692662,2
10.2,8.375,3.025,3.725,11.65,14.075,3.275,7.425,731.0,554.0,185.0,235.0,809.0,942.0,194.0,456.0,21.0,20.0,14.0,22.0,22.0,19.0,17.0,11.0,-0.6996576368240219,-0.17589120939126648,-0.08152166585667818,0.008157186835186122,-0.30470876006790787,-0.15234156521483794,-0.08602928955702328,-0.024934628631668735,-0.5121380715298498,-0.26982144195652075,-0.46192119969473355,-0.3171986825063964,-0.7669861970590302,-0.68427247163141,-0.40532762408571427,-0.32431661558533104,-0.6835984590171481,-0.46361745699614637,-0.2936399031635627,-0.1573627481925727,-0.46902611043333403,-0.5778040059742868,-0.21999179352503628,-0.4312701083654165,-0.3839559132373414,-0.17672461236801518,-0.18311890318852292,-0.21297684124308472,-0.2319025133869854,-0.1306234914261904,-0.19103793403700287,-0.10349261567437962,2
9.975,7.15,2.9,3.025,10.3,13.15,3.075,9.5,711.0,486.0,145.0,140.0,705.0,778.0,178.0,587.0,19.0,19.0,13.0,11.0,17.0,17.0,14.0,17.0,-0.6077912045735789,0.21668186213105783,0.1639574122736719,-0.13235584831916805,-0.6151831894561203,-0.3455967562976728,-0.0009338904191792333,0.08957835827869408,-0.05200965470479743,-0.11559403397209049,-0.007980725117346524,-0.14766248560317957,-0.05442811077087064,-0.0456184438437251,0.0008420198123722936,-0.11905059425278058,-0.7124419822579089,-0.40081139728559384,-0.48837997515482306,-0.386216647323692,-0.4402973265389714,-0.234112405152134,-0.026118726746995755,-0.03490783746958129,-0.1994180747674156,-0.0006233327332334353,-0.1294696929266539,-0.3583136870727763,-0.2135700034690995,-0.0956890110552545,-0.15417601384513327,-0.19799586155758594,2
7.875,9.5,4.05,3.575,7.9,15.6,3.35,9.75,517.0,641.0,250.0,217.0,516.0,1046.0,208.0,592.0,16.0,20.0,16.0,14.0,14.0,19.0,17.0,15.0,-0.27234168209377135,0.08220357422957449,0.04354207782836494,-0.03638850583332381,-0.5007380700318704,-0.11451699637956421,-0.32344586689972005,-0.3338787815008284,-0.5086058325617404,-0.35528924536192186,-0.409229215791268,-0.29308691549582266,-0.5441386081740305,-0.5526847095329882,-0.5071954687739848,-0.3169605001429198,-0.336158854186544,-0.02917646323012267,-0.36491912880944266,-0.21974951757834194,-0.6003472006128112,-0.2536696622271792,-0.33851661436586555,-0.23404802670614921,-0.4247436788557457,-0.23367072697545058,-0.2140992756344531,-0.18675205062458405,-0.29004917286146004,-0.1472256640058105,-0.05212314702650721,-0.2637718132266967,2
9.25,6.25,3.8,2.95,6.625,14.95,3.175,7.875,577.0,375.0,244.0,177.0,425.0,940.0,207.0,489.0,20.0,21.0,17.0,13.0,16.0,17.0,16.0,15.0,-0.12764521052373545,-0.004640493918272465,0.09440225143062571,-0.22395078985199757,-0.0404824917807748,-0.23821555385783005,-0.26795115231375455,-0.08632675383957852,-0.4937671351174811,-0.28575825982117736,-0.28352199196912503,-0.16701131996880889,-0.13050782563399718,-0.004795126400836594,-0.17819772801027142,-0.2250328364816149,-0.22057895437961714,0.15455231886495657,-0.2293678969395094,-0.21402756216985133,-0.20853349274526656,-0.4760206601265408,0.06745953499257387,-0.16533379118290445,-0.24987338124625694,-0.17437037491279817,-0.1232832742230758,0.004549514558939509,-0.4924690200195652,-0.40498876959603586,-0.2518065497889146,-0.27689221052603635,2
10.025,7.2,3.575,4.3,8.9,13.425,4.05,5.775,638.0,415.0,216.0,224.0,607.0,847.0,255.0,346.0,21.0,14.0,12.0,16.0,22.0,16.0,19.0,18.0,-0.27762173190037337,-0.04674080394069226,0.15647097187625367,-0.08771508133457119,-0.1375670645854258,-0.1250590711446701,0.0457660140916553,0.026303203412492895,-0.3491150111170856,-0.1987088895491922,-0.4445819848315417,-0.29372489520241024,0.15338636606027325,-0.087114324905982,-0.34188203415817353,-0.14707388891348597,-0.6194275422304346,-0.11527619644696077,-0.0013237375150955424,-0.12596774746302564,-0.34782730700145115,-0.2725595266381491,-0.0855122940456,-0.2081806568650573,-0.2678461464329984,-0.31009126679846527,0.16010071903244164,-0.03207223288336952,-0.5440046108088238,-0.6213821871229179,-0.16813242153529764,-0.07894416147695418,2
9.75,9.875,3.075,4.575,8.1,12.575,3.875,8.35,605.0,540.0,165.0,259.0,588.0,654.0,262.0,564.0,15.0,17.0,12.0,14.0,18.0,9.0,13.0,24.0,-0.3241607779380589,-0.24798946826640042,-0.11875045216547252,-0.48143105893234345,-0.3094370489610875,-0.34801325449972703,-0.3024562468710668,-0.17276634530049664,0.06678448751440437,-0.2526602393230227,0.07381311388019324,-0.234908162957392,-0.20285280541229728,-0.2721604982731315,-0.15079408074158496,-0.37903014411948066,-1.0231507558969495,-0.711638677491261,-0.26588761512658776,-0.02418198583053475,-0.2200674213919034,-0.1844273876048068,-0.24528769382883522,-0.17264795218221748,-0.607391602719889,-0.25320416241236027,-0.22386850101657274,-0.24483543837514213,-0.6144504901422924,-0.23347283318908846,-0.3191169019081856,-0.3838575530728505,2
9.05,10.425,3.3,3.7,8.45,12.175,3.225,9.425,528.0,645.0,207.0,232.0,498.0,749.0,193.0,635.0,15.0,19.0,15.0,18.0,16.0,16.0,16.0,18.0,-0.1569082379755676,-0.13316267542562496,-0.0585363985417668,-0.23467706861895568,-0.2140494570231602,-0.3084421986705048,-0.050110037649572683,-0.4021917567207647,-0.33575697359826234,-0.20590385964327756,0.18843306243470453,-0.061265109670681536,-0.6503781542643101,-0.44489703163069594,-0.04607398952964634,0.0231491918069618,-0.44282045249880425,-0.45891906269097854,-0.4452242356275775,-0.4225198626929896,-0.3241483150970061,-0.10890478833070873,-0.039627420118548626,0.13287506857624434,-0.3277899287901215,-0.5194179422080543,-0.22969820658427167,-0.09991117117016311,-0.47768829437227317,-0.38839851535493114,-0.3574300605912459,-0.5844103147030077,2
10.4,9.65,3.9,2.9,11.225,12.475,3.525,7.825,646.0,622.0,240.0,193.0,757.0,856.0,212.0,492.0,19.0,13.0,15.0,19.0,19.0,19.0,20.0,18.0,-0.394251118645467,-0.3092648902032535,-0.34218086709301093,-0.3868629035518826,-0.1094721779390791,-0.2520040361879676,0.011953377048006739,-0.10664955935842692,-0.25458538005256365,-0.3085763140813254,-0.21707011267459597,-0.3097218720613351,-0.5888940085022162,-0.434089601264478,-0.08134081763903045,-0.19546572696344847,-0.6026204914101037,-0.3549102445095476,-0.24505810701358086,-0.15205180766813314,-0.46413618559482445,0.08254928741692509,0.09284982704735198,-0.16657729727339876,-0.298937869183351,-0.32611005515485153,0.004087589893816526,-0.0864534030016406,-0.3606571074968136,-0.3949424654337921,-0.16973498272713314,-0.28464813234636477,2
12.525,10.325,3.3,2.525,12.275,14.1,4.325,10.1,847.0,662.0,199.0,157.0,846.0,902.0,277.0,689.0,18.0,21.0,19.0,13.0,18.0,17.0,16.0,19.0,-0.7039139443260851,-0.5468320226888818,-0.3163690420790669,-0.13388098888631797,-0.44341311120075927,-0.18352949080034575,-0.2719540532229424,-0.18902327983617262,-0.27913871474442353,-0.016045504411674145,-0.11733530631231871,-0.3135131584265029,-0.24591895644836886,-0.32471219921222455,-0.26619287914204276,-0.11019073604182195,-0.6132126679215879,-0.42215457345265234,-0.2568274444904327,-0.1693392952852237,-0.3304752764193008,-0.15388013361686467,-0.13190842627792265,-0.11425611385796017,-0.4268395201182427,-0.5085178253443697,-0.028774097501316282,-0.246181927348019,-0.7955479423337185,-0.6060480900586916,-0.28658331177703394,-0.3713722148789347,2
7.925,8.775,3.25,2.775,8.875,18.05,4.275,7.65,504.0,577.0,221.0,169.0,580.0,1139.0,261.0,531.0,17.0,19.0,19.0,17.0,17.0,17.0,18.0,17.0,-0.22567880815405617,-0.12463846501097252,-0.023473628533989314,-0.01882382320269981,-0.6100992945976867,-0.15749114247642979,-0.6037347723136394,-0.4031763220377098,-0.42538787866878763,0.10208951666567619,0.25285556407338744,0.1402167382745642,-0.4028884633616088,-0.3806504480410483,-0.4040333766116653,-0.24656987186670373,-0.6050301584762433,-0.5193905586440862,-0.20013873606585167,-0.23752073952871064,-0.5892163385425415,-0.38841002901084326,-0.3013183030895499,-0.25547653889404537,-0.37703554828094665,-0.33002602325078273,-0.18372411148101672,-0.24867524914447675,-0.3512350286690306,-0.0650619091126479,0.2561331418047615,0.009046903043730759,2
9.85,8.425,3.425,3.0,8.95,14.25,4.175,9.0,657.0,521.0,220.0,195.0,615.0,933.0,270.0,564.0,19.0,17.0,15.0,19.0,18.0,16.0,20.0,14.0,-0.4170430437353596,-0.42498999682747995,-0.24672544177964292,-0.04859409475888982,-0.5151828788439791,-0.15335240186797638,-0.060009938311646624,-0.16722117907147765,-0.3795127359066087,-0.19934075200645718,-0.19804700416156285,-0.19610749899876795,-0.6439297584532203,-0.5222205245879729,-0.26907699305771193,-0.21939838156149427,-0.5565242687229195,-0.25760395165777783,0.06783836207570564,-0.09595187610635983,-0.5906101055296474,-0.18283326603254563,0.026980195168918,-0.0934595027236236,-0.3937321692695235,-0.05771603487588803,0.02579161134325222,-0.26057283757209,-0.34958216985256513,-0.3623751869672561,-0.14055682574678735,-0.21456242088888045,2
10.925,10.2,3.875,4.425,7.425,12.7,3.825,8.95,687.0,685.0,280.0,293.0,499.0,820.0,229.0,558.0,19.0,19.0,19.0,18.0,18.0,18.0,15.0,15.0,-0.24691470868125173,-0.16868569876785766,-0.12359872269457023,0.07806258793644368,-0.4486242049302067,-0.2534236348562455,-0.1270115116392582,-0.36265311895476127,-0.6409652832149791,-0.47448193201652084,-0.3534370266340426,-0.3383840548550462,-0.5788760801725518,-0.39819355625154906,-0.2302238809460722,-0.037204893113414475,-0.3561496033541763,0.04162811311646814,-0.26457884324016073,-0.19838222849192563,-0.35358208553284837,-0.20470621732317504,-0.2302360896277899,-0.2845067791902102,-0.34940122094520487,-0.0005951843973445561,-0.001477866557291417,-0.25476910021139004,-0.35273669916939315,-0.23820443374211242,-0.23643598109695632,-0.37602030412334625,2
11.1,8.25,3.15,4.075,10.25,15.15,4.3,7.85,762.0,545.0,209.0,248.0,729.0,1036.0,281.0,447.0,21.0,18.0,14.0,16.0,19.0,20.0,19.0,16.0,-0.371995121581156,-0.1669957607878473,-0.05249679175182809,-0.1773197980808264,-0.5682493703713529,-0.3973287926261811,-0.002101661389074898,-0.09004552527437817,-0.486365739900107,-0.18714123113879524,-0.11292001621760617,-0.050903242709604814,-0.30258100988642594,-0.3087440121912512,-0.006628237840806481,-0.13579660058985138,-0.4332362834744918,-0.26907660474854916,-0.14784132061232322,-0.4735002679467067,-0.6657133505371863,-0.43391559938795,-0.40842831420405307,-0.29762244065131144,-0.6621146722627456,-0.47696236279050697,-0.3776700629236753,-0.210635313168643,-0.10964809882166812,-0.17709925627908382,-0.08349957105375731,-0.2825078165678311,2
12.35,13.3,4.375,3.9,9.05,16.75,3.775,8.75,832.0,933.0,304.0,260.0,569.0,1028.0,226.0,579.0,16.0,20.0,17.0,12.0,18.0,14.0,15.0,20.0,-0.5321497006625258,-0.14096843171065415,-0.05090800556334662,-0.0936117580980025,-0.9400375753164597,-0.7609555540423245,-0.5927031116968817,-0.387346407108061,-0.5608446162895437,-0.22393758539174707,-0.12295904262769788,-0.14893581648779786,-0.6114095174527079,-0.5178455689534541,-0.5201936798247273,-0.4404380890829207,-0.3030338642104636,-0.1170605314514005,-0.15892464569571343,-0.27068751705841965,-0.303780551469597,-0.19248826546386158,0.08334957670040141,-0.06161393969287633,-0.24156429904351012,-0.5364554923007888,-0.13129222832844722,-0.42324059891257415,-0.40773022652477614,-0.4367831905149049,-0.029796699237027453,-0.2794904581733444,2
8.55,12.725,4.1,3.5,11.55,15.525,3.95,11.125,536.0,847.0,286.0,226.0,721.0,1051.0,242.0,722.0,15.0,20.0,19.0,12.0,20.0,18.0,16.0,24.0,-0.08936397844982377,0.19707426706094902,0.09119774893027359,-0.11337953819084441,-0.6694476106937539,-0.4383690317897744,-0.10185640854406235,-0.1574699383118014,-0.5747004416249543,-0.1069200062532925,-0.025114149029423036,-0.20221256269871227,-0.323643532001324,-0.29639107837259554,-0.2281347466122117,-0.44998913851651434,-0.4004032653932551,-0.27384970475106013,-0.11156268217889918,-0.2531358170532884,-0.3407418450836764,-0.0805820526650584,-0.21658405294733152,-0.29077982690270116,-0.4992018939964626,-0.38196298242341614,-0.366694143557581,-0.36081615901055936,-0.4919404113289124,-0.2274177298528306,-0.15696315929041388,-0.08102537380748089,2
12.55,10.775,4.25,4.325,12.45,22.5,4.675,11.25,796.0,702.0,264.0,266.0,869.0,1543.0,302.0,673.0,19.0,19.0,16.0,14.0,20.0,21.0,18.0,14.0,-0.20468777259074283,-0.17151394523989208,-0.03316566927678234,-0.23830763053978934,-0.5090125417046683,-0.0033709762050441773,0.13557472282612543,-0.022188496999775584,-0.46534646763231186,-0.23731452217337784,-0.46172451342609494,-0.43041341820116386,-0.49582297607624776,-0.463324148011479,-0.5419957620815088,-0.4052013345441752,-0.4910072569547393,-0.3866875399011289,-0.14449079280835356,-0.4123340126545598,-0.6425790038046234,-0.2809829843630311,-0.36534434720188597,-0.3472835128342641,-0.4055927767805339,0.027587934817179364,-0.03365619014923074,-0.1823056335411463,-0.2301251416426992,-0.07951145935294701,0.19741939732847535,-0.07660173031286957,2
14.225,13.225,4.85,5.15,11.7,22.375,5.325,8.1,944.0,902.0,292.0,292.0,806.0,1475.0,316.0,576.0,20.0,20.0,14.0,18.0,21.0,14.0,14.0,24.0,-0.15627070505597007,-0.37194039530812584,0.030469659344926455,-0.46147125260450683,-0.24211121874760352,0.12092968446670971,0.36093670273987066,-0.23580371956939128,-0.46488313200274456,-0.26294210002176527,-0.5073102837765148,-0.5416870274150788,-0.3598655931769077,-0.253230710622201,-0.5607892844653455,-0.322667631219483,-0.538730771703742,0.10383002932405817,0.32645857969179615,-0.03074812872783492,-0.45457925173445785,-0.3437981418699518,-0.19292517041196447,-0.12775046696762082,-0.41887098791557975,-0.4840615706050111,-0.29153760824296077,-0.3232375153785053,-0.49924648341003275,-0.1236132693423084,-0.20596348965912128,-0.19192964534181486,2
13.5,14.825,6.55,4.1,13.95,17.05,4.025,10.1,813.0,968.0,395.0,253.0,883.0,1044.0,229.0,670.0,14.0,19.0,15.0,15.0,19.0,14.0,14.0,19.0,-0.3961227938434764,-0.19914017509353196,-0.1133761395646799,-0.09976639756895003,-0.3491658343412931,-0.20768045129553456,-0.23897144463086023,-0.2874028764938011,-0.46442002581399316,-0.23557639058070537,-0.35066664080992554,-0.3099336591909128,-0.3879479516538728,-0.13026102883217489,-0.4420343510289439,-0.4706715505621868,-0.4414547960385736,-0.39825305479542583,-0.35457145001046525,-0.4103475762573719,-0.22883025480410182,0.08247542595169745,-0.18212154512103443,-0.13744837937998672,-0.19114642970354062,-0.21027085978628396,-0.09459658855901268,-0.16972860367197914,-0.37966228242962097,-0.1460808776530692,-0.0725763308982994,-0.001915966620594293,2
13.9,14.45,5.225,4.425,10.925,19.775,4.425,8.275,865.0,983.0,354.0,288.0,754.0,1263.0,323.0,551.0,17.0,17.0,19.0,19.0,18.0,19.0,24.0,22.0,-0.33825648094120914,-0.37445080449502105,0.061610890745029505,-0.19138870829471838,-0.4714312421294294,-0.3719474274491623,-0.19464248808643833,-0.17445550718487868,-0.7754343216489352,-0.5330649297000587,-0.36984313019936965,-0.16702825974348623,-0.43912984368795127,-0.37164567515607305,-0.5283480855855216,-0.2851172342017163,-0.4373897998637256,-0.1728570098151414,-0.29408080512879947,-0.21597851588308226,-0.34061627093379215,-0.08681887993478482,-0.062405973561442805,-0.35839499244224265,-0.7291791086893172,-0.0036085769653287914,0.119041218438396,0.0023358165244343095,-0.31979113662027436,0.10010189229079328,0.07044285858622797,-0.17398701719688006,2
12.4,19.425,4.5,4.2,10.675,19.925,5.3,5.675,707.0,1200.0,289.0,207.0,719.0,1326.0,372.0,368.0,14.0,16.0,16.0,13.0,22.0,17.0,21.0,15.0,-0.2402926174678113,-0.5561175097641622,-0.2218540181099,-0.2814485147084055,-0.602512115537295,-0.4160839965330608,-0.5590964831830051,-0.5092152377805498,-0.3587605299059389,-0.3285760338583476,-0.5081491492926666,-0.13345092751044813,-0.13326537882389256,-0.24800041946002158,-0.5964066339813255,-0.24167880817870752,-0.5238919201826702,-0.2594263432993161,-0.0799129737269003,-0.2152421346725541,-0.5134442228535819,-0.2788270298115626,-0.4478538944888253,-0.41313991380440196,-0.6557446080517235,-0.1228976589196089,-0.4655144887504289,-0.5962087196872135,-0.1100580459947853,0.14692786858460305,-0.037146107667730806,-0.3221821965200263,2
13.2,13.6,5.2,4.35,13.225,21.475,4.1,6.475,942.0,844.0,367.0,244.0,909.0,1379.0,248.0,385.0,21.0,17.0,20.0,19.0,19.0,21.0,15.0,14.0,-0.5413196965638745,-0.2989890735308076,-0.29670572783644295,-0.3058397634915986,-0.49676572012703707,-0.39132384986154833,-0.4454639028331224,-0.36672360178623264,-0.4364939152997256,0.08429589540329553,-0.08323652222703055,-0.08741789547868073,-0.3503181391448103,-0.17038680226266498,-0.4416934431946347,-0.461147089401134,-0.4950966150050403,-0.21419066387358385,-0.025929646568785714,-0.3649585507878869,-0.2980499725564403,0.1891084228051785,0.15435677299183914,-0.3049598806161256,-0.2668551271914924,-0.15901748192084444,-0.1271494498844218,-0.2594933665970566,-0.13811033483597146,-0.08828646752103135,-0.1470808641204024,-0.23199998623028026,2
14.8,9.575,4.175,4.575,15.125,20.35,5.375,10.3,1018.0,646.0,236.0,221.0,1072.0,1287.0,357.0,734.0,19.0,16.0,12.0,11.0,19.0,21.0,23.0,21.0,-0.3972753315116946,-0.23002919462143295,-0.17186140563621005,-0.3614342049126389,-0.44824264398577257,-0.35317090089180897,-0.30866860845573746,-0.38290842275530124,-0.2498697921430132,-0.22248509175977207,-0.33263347524180914,-0.29789979274825346,-0.26807735376391945,-0.5851663530016602,-0.4736077520092178,-0.5099669883416363,-0.520741974054885,0.0064840454095546705,0.10199482865330022,-0.20967209808188556,-0.4719338993153196,-0.2741885108938441,-0.24326875673459408,-0.37653636464181384,-0.4605497294314472,-0.18123395955590144,-0.37074151222444346,-0.41950898345447873,-0.7153470373970686,-0.24255394514653816,-0.20932270885523863,-0.23791348827920927,2
14.9,10.675,4.425,3.775,14.925,20.075,4.575,7.825,1033.0,718.0,230.0,220.0,967.0,1305.0,301.0,469.0,20.0,19.0,10.0,14.0,17.0,19.0,15.0,12.0,-0.46447968489625113,0.036633115810784746,0.18358970041859238,0.2941847554202545,-0.27820790207862595,-0.15270992037997153,-0.19169554539593078,-0.146979126120299,-0.16948455662294476,-0.3105973604940607,-0.0989631068285885,-0.4166594045030692,-0.24862849733637932,-0.1787283310383441,-0.23269997625975555,-0.306182927934382,-0.7070444409238142,-0.664159436111055,-0.555601934719205,-0.35009020575039795,-0.3432912299440919,-0.11429253924757894,-0.2771536386628742,-0.1438337177740273,-0.5825937268045013,-0.2900455729186137,-0.14162266087506448,-0.15590625414594178,-0.3327630932136672,-0.23965046789208752,-0.2949542753495271,-0.4216344117062994,2
12.925,11.175,5.05,4.425,12.75,19.0,4.35,8.075,793.0,707.0,324.0,297.0,818.0,1249.0,271.0,535.0,15.0,16.0,16.0,17.0,18.0,20.0,17.0,17.0,-0.41374953719173746,-0.14055311174541682,-0.11531536386066081,-0.08067040414203909,-0.2487867625783821,-0.05092691869876261,-0.26471817559776795,-0.2526106593507892,-0.5963835769723725,-0.3938197180798144,-0.3449521338958226,-0.44881303681152057,-0.7126604782023473,-0.48576982698954624,-0.35972116464720416,-0.34531741928646803,-0.46286821655232685,-0.17276590031105585,-0.22562123078175964,-0.08348963898631025,-0.39151434868116336,-0.16678733651607947,0.04272023509072288,-0.16433508009033437,-0.45713563099225163,-0.24422629805262727,-0.17062212583536335,0.082536580461517,-0.6146388708225032,-0.4467894449610796,-0.6145622631014731,-0.2916070644237535,2
12.0,7.9,4.275,3.15,14.95,17.2,3.875,6.5,757.0,480.0,263.0,176.0,937.0,1174.0,245.0,436.0,16.0,16.0,18.0,12.0,17.0,18.0,16.0,18.0,-0.27797740453525416,-0.1481936730625762,-0.07157978958104094,-0.0855667652939818,-0.6641744969961082,-0.5183510655518667,-0.557480824777298,-0.4009262253504819,-0.4695507619885202,-0.2452404025716999,-0.07243657673120406,-0.1529068656002863,-0.11090022989659337,-0.061608292830200216,-0.12686546207191804,-0.22960737605188514,-0.5245842284449375,-0.39764651045123983,-0.2788342522324508,-0.2444557530595492,-0.5690196520162861,-0.3428561912397506,-0.5049786630740998,-0.5228583504750234,-0.37725042114165425,-0.09772493405892124,0.11597242632630428,-0.11557679105524725,-0.24828012999312898,-0.265333296256927,-0.08101893778640909,-0.199769783687463,2
12.625,7.725,6.35,8.25,14.525,16.5,4.375,7.975,784.0,471.0,405.0,503.0,995.0,1034.0,276.0,482.0,20.0,19.0,14.0,16.0,20.0,17.0,14.0,13.0,-0.5230602608338767,-0.5219212760101142,-0.14024913263489364,-0.1686040015578597,-0.08220776856560726,-0.2655061436067084,-0.08924053806622255,-0.09751987678335941,-0.5014172452705833,-0.25420033429923533,-0.5354012732169741,-0.4897854041600672,-0.478490135275676,-0.37937720838056765,-0.41244734570280894,-0.4396520985684685,-0.48198256956212693,-0.2854589953138281,0.06002368692691921,-0.2412281518928738,-0.4044004223805053,-0.0628732367015266,-0.35637921496559954,-0.1374750162634643,-0.5333133522781985,-0.26319928834565903,-0.5669221811721371,-0.4715496019023597,-0.34142104311329863,-0.45643763586211333,-0.2818978004899019,-0.33074416324304823,2
17.325,16.2,6.775,7.675,13.9,23.8,5.0,14.325,1067.0,1099.0,476.0,503.0,878.0,1417.0,337.0,898.0,17.0,18.0,18.0,16.0,18.0,16.0,16.0,16.0,-0.2436752795867493,-0.21197411618795617,0.1488672251469339,-0.21891721217935242,-0.7097996182952567,-0.5559721558673778,-0.4475544222808688,-0.32501060603685444,-0.647944766652272,-0.32822107393319605,-0.6396035850217217,-0.5441907055073603,-0.8409823499119788,-0.8159209105453507,-0.77724500326149,-0.6009208827807733,-0.38747434007454545,-0.044227042693820176,-0.0895455000873688,-0.11698914269319821,-0.3851050168333418,-0.27633862243372903,-0.43167565905091704,-0.22927673008007274,-0.5372263040575486,-0.29221987564557406,-0.4858693837872988,-0.24802561176969334,-0.39505281003641546,-0.34156356584073694,-0.19343707671217095,-0.2053674131802706,2
18.475,19.0,7.75,9.375,19.25,26.6,5.85,10.55,1219.0,1301.0,540.0,555.0,1274.0,1623.0,358.0,643.0,18.0,18.0,17.0,16.0,18.0,16.0,14.0,15.0,-0.325135722679597,-0.2113341809313439,0.024747729435705804,-0.17021488422020056,-0.6161181110985436,-0.41351512512486127,-0.383363308239103,-0.24335818545770954,-0.4635197758325269,-0.17477457123023163,-0.26501376055860404,-0.18434376018847023,-0.4570508728643456,-0.49935972407406637,-0.45230112027354696,-0.5597411332642105,-0.7814797384637676,-0.5452476448369257,-0.29926350443924904,-0.22796156535824685,-0.4941413552696087,-0.47319754782012347,-0.2714326912889653,-0.39176595585346047,-0.1254332079083755,-0.11035508540664318,-0.39475548549944073,-0.18582108203061745,-0.26032855662435767,0.036029363357745,0.01782428522715634,0.0758919415778945,2
15.7,17.55,7.075,9.125,20.325,21.35,7.1,11.925,910.0,1045.0,512.0,575.0,1391.0,1213.0,364.0,842.0,13.0,13.0,16.0,20.0,23.0,15.0,13.0,19.0,-0.366079933055141,-0.027543108460542653,0.18102892492598163,0.08386338685499221,-0.3542980293394726,-0.3264980345427149,-0.13799573682192276,-0.2102147103910393,-0.4084424724606379,-0.2216745379706952,0.05551864726179003,-0.2016474262147045,-0.5684899000947764,-0.573387562371275,-0.44332359566376467,-0.5448834935615017,-0.7717165133412187,-0.5439204610328519,-0.5627450665727042,-0.35581207354548394,-0.24212057539196236,-0.018000814410499985,-0.31831206741035317,-0.3528324354759651,-0.07783418228472731,-0.08272604625414907,-0.18684127426298267,-0.23282660475684464,-0.3578023907929187,-0.1530303734942263,0.05502872747274236,-0.3514241378474287,2
19.65,14.4,6.725,7.25,18.5,26.975,5.375,15.025,1310.0,870.0,429.0,451.0,1132.0,1765.0,329.0,1010.0,19.0,16.0,19.0,16.0,16.0,19.0,15.0,17.0,-0.26428456869720146,0.01824487022544012,-0.14891954654975506,-0.041903235135849114,-0.2930394009483171,-0.0786366181621506,-0.12234156978061005,0.033121045391134266,-0.5305147811301754,-0.48619551814537393,-0.16474084253625845,-0.27336775274734515,-0.5144452424794606,-0.676792301301613,-0.46667607951876805,-0.4093872374446542,-0.40933159595670116,-0.42714696062970414,-0.09445086068073112,-0.2542841479897181,-0.45953798109456545,-0.03969810393229166,-0.32303208159133356,-0.621208208651318,-0.5236479338832167,-0.4501056887751892,-0.44175436000030033,-0.46580440300987896,-0.44045738717706695,-0.12354967676126097,-0.34819316521022176,-0.38237993549067123,2
25.575,18.225,7.225,6.525,20.05,27.725,5.15,16.65,1783.0,1176.0,457.0,407.0,1308.0,1967.0,319.0,1079.0,20.0,15.0,20.0,20.0,19.0,23.0,16.0,17.0,-0.46027249827229993,0.01437283092551351,0.10641772287858112,-0.04221167449812854,-0.4228998930903692,-0.24623194646341554,-0.416362269850134,-0.42703802530202023,-0.32242195094072246,-0.07033698934516283,0.1698905092347003,-0.008561236058280292,-0.221230779130235,-0.2956046463213391,-0.1779980639318935,0.03485305893111631,-0.42608786282251204,-0.31332535763286645,0.04300362891226399,-0.06177458171277249,-0.46962929047145757,-0.0748357536333214,-0.10400048048369408,0.0008612008770075343,-0.2703977408635274,-0.280603488461086,-0.22605970083431415,-0.4041767165132868,-0.22920513601466275,-0.10389093032722077,-0.3496408681442359,-0.08480895166741237,2
16.85,18.925,7.225,7.075,17.275,22.675,5.475,13.9,1180.0,1326.0,441.0,459.0,1177.0,1431.0,357.0,879.0,18.0,22.0,14.0,20.0,18.0,17.0,13.0,18.0,-0.523128148895851,-0.4488694887784593,-0.17335601898918218,-0.2145643085184006,-0.7256348010482613,-0.5835216465595364,-0.5863627915972878,-0.5020935622809664,-0.582112690719346,-0.5486102092628665,-0.2322625219577251,-0.2981936050693382,-0.39950837183712246,-0.6489304356042845,-0.180990324038107,-0.2381194406684733,-0.3411637742805219,-0.007288789762588826,0.2535543444416602,0.21643222053632055,-0.2279225891677064,-0.18785839810549262,-0.12074825516023191,-0.29336975612908567,-0.42604370695673455,-0.19472930037681857,-0.42416100122828587,-0.44956361111133003,-0.36811894978686066,-0.20386833431757995,-0.1965964063498314,-0.17327131452102043,2
18.75,18.525,4.675,6.725,17.85,24.65,8.325,12.375,1261.0,1197.0,269.0,399.0,1040.0,1493.0,560.0,770.0,18.0,17.0,14.0,18.0,16.0,20.0,17.0,17.0,-0.5283463339288431,-0.45237903631739584,-0.12859851063749098,-0.13484386621426955,-0.41182693654237074,-0.2583319658560978,-0.18595945444898598,-0.40633398062715226,-0.20092036148617917,-0.434028626252363,-0.23745019241014587,-0.4786115086389944,-0.2857452929918658,-0.3435506371246885,-0.2433826613890474,-0.2943308762025755,-0.24898390773994328,0.013119474953719587,0.22515671689462627,-0.006810845376052171,-0.4736518167449651,-0.3124935321657761,-0.23628736523083904,-0.2561234429141307,-0.7363185809879066,-0.59829479119031,-0.44673144478037163,-0.43080843093570576,-0.43511375938250096,-0.3264780541262008,-0.3127318039262509,-0.38368349075614117,2
25.65,17.8,5.35,6.575,17.35,29.4,8.8,15.1,1693.0,1213.0,355.0,415.0,1163.0,2014.0,611.0,987.0,18.0,18.0,18.0,22.0,20.0,21.0,23.0,20.0,-0.6524704787123696,-0.09721542762274633,0.015112276297275476,-0.08493279401420806,-0.5399303100967607,-0.34368357415832623,-0.6235865314697537,-0.508147929816396,-0.610941252318898,-0.3347062513476728,-0.3000526531276371,-0.05174301556745711,-0.6491547837219402,-0.4303413221044833,-0.5775985890523975,-0.340966416554499,-0.2751768992696649,0.05507311121670358,-0.10846102377272662,0.005676099369304723,-0.7146971445479178,-0.4850528547287436,-0.3851959211370046,-0.21549242466725382,-0.8087026725042814,-0.2874624806519782,-0.1453242162438466,-0.09210431980997098,-0.3873957355893532,-0.18078907405883,-0.28092607537979697,-0.3190532331434528,2
29.35,17.875,6.225,6.375,15.425,21.025,7.025,19.1,1958.0,1106.0,420.0,408.0,987.0,1414.0,417.0,1296.0,20.0,17.0,21.0,19.0,19.0,22.0,18.0,24.0,-0.5985843724613708,-0.18972201982716466,0.022715129169241576,0.08275875400590953,-0.44598961462515785,-0.30169672863430297,-0.18200470864787271,-0.14739767727690375,-0.6428341181576851,-0.2702868041717269,-0.5692536775752793,-0.47899403890782444,-0.4941725981694683,-0.4874727967692934,-0.24151890623133948,-0.41733709354395987,-0.2802629162390033,-0.0968522301051495,-0.05851074605543847,-0.16355680013774362,-0.40664611205864715,-0.1384167075202257,-0.059999269087628995,-0.0879918036934241,-0.35767946452459937,-0.1567141487421435,-0.031174977789940696,-0.04232917138312485,-0.4857312106169975,-0.234864727484497,-0.10176032717717431,0.06860905337221394,2
29.4,17.6,6.35,7.25,15.475,25.725,7.0,18.625,1858.0,1045.0,379.0,384.0,953.0,1543.0,417.0,1296.0,14.0,18.0,13.0,11.0,19.0,17.0,13.0,23.0,-0.3134376674306503,-0.38975126731582377,0.01994565317175342,-0.19429724354127126,-0.18967376333427335,0.017510745234096042,-0.04290471854383478,-0.1899970337011786,-0.38503561778775963,-0.49442034364507814,-0.4711615758268117,-0.11010772017238801,-0.3079134078976903,-0.7788334922582424,-0.38484549889510733,-0.3482368671222855,-0.3031863257661977,-0.16583356038292432,0.01900012573312364,-0.36161380135082194,-0.4012035871757144,-0.4536196224778245,-0.15922872827925777,-0.3708583148283363,-0.18754901689942358,-0.43544143836132776,-0.06603718369417902,-0.28607750401671916,-0.4153533416647861,-0.008025160932818892,-0.029977184286843955,-0.015745582404924244,2
22.95,15.2,6.6,5.925,17.625,23.225,8.25,19.675,1435.0,934.0,413.0,356.0,1268.0,1449.0,531.0,1258.0,21.0,15.0,16.0,16.0,21.0,19.0,18.0,18.0,-0.2713979754976309,-0.0813882495227372,0.1397599316119339,0.059148459484071714,-0.3158816620039252,-0.3463914323154099,-0.11339689114648799,-0.08411200288167063,-0.41733639994021154,-0.6521818109007803,-0.365554533933871,-0.27819820578822535,-0.4331709765815122,-0.6087731651871926,-0.3397206453120171,-0.15021723184346195,-0.5348391413504661,0.007077072727237121,0.07464932992290833,0.008320996079256295,-0.49324352900182333,-0.16612257909322065,-0.28225786489507126,-0.4144289561216437,-0.3632773833588231,0.02934062201386623,-0.05328252690243633,-0.1904135123977819,-0.5863320676084716,-0.33150561182892846,-0.08195136887387874,-0.09005678212786687,2
23.825,14.375,4.775,5.175,23.875,23.15,7.425,17.45,1521.0,858.0,319.0,307.0,1720.0,1598.0,420.0,1104.0,15.0,17.0,17.0,17.0,22.0,21.0,17.0,15.0,-0.23217257066238528,-0.03568679410184344,-0.01623459034798838,0.014441423823211966,-0.3850556227590821,-0.3691115632861453,0.11968999273032922,-0.08150477357275017,-0.31980985008333435,-0.2980386106041439,-0.29446998879900566,-0.1816841352170533,-0.6020245077078831,-0.6175405692635988,-0.5581512669739437,-0.299173732748784,-0.6283952062994499,-0.10901789899918761,0.0548977388970003,-0.002277235452096262,-0.41320247360710666,-0.018891772524794848,-0.28253696965745334,-0.264718573457487,-0.3790144220054006,-0.44646429545209043,-0.41351159841328305,-0.33736353527335544,-0.4155311679805481,-0.11596024941409408,-0.02147520068119146,-0.20807907910018814,2
17.325,11.525,4.4,5.575,19.5,21.925,5.55,10.8,1201.0,783.0,294.0,338.0,1451.0,1419.0,369.0,689.0,16.0,16.0,19.0,15.0,22.0,18.0,20.0,19.0,-0.273840313711708,0.3771895160914988,-0.053544862235508986,-0.2892919976778445,-0.45782333581463763,-0.3115721330408601,0.0633301127061431,-0.30258632573254085,-0.5018879589182615,-0.28569593252514486,-0.0427023985466307,-0.40827590799436325,-0.5045608924948595,-0.3775539986675397,-0.43544420198923045,-0.46975237017445454,-0.9094718866386289,-0.5092461118149975,-0.25034681563966854,-0.08420592928102698,-0.30642236223975755,-0.31663649717074244,-0.10573811838713529,-0.5051515772588091,-0.37789571492523527,-0.2158988916659405,0.11670354845601362,-0.24760829351353145,-0.23860165278275136,0.0970225790683798,-0.14652554205073584,-0.07246928106028996,2
7.35,16.55,4.825,3.675,13.0,17.7,3.125,6.85,505.0,1039.0,317.0,253.0,898.0,1164.0,209.0,434.0,17.0,15.0,17.0,19.0,20.0,21.0,20.0,16.0,-0.4888748664081218,-0.13007401384950426,-0.03664369917443579,-0.17962375580619677,-0.3801639646280617,-0.14388903124960067,-0.3581430302582454,-0.4771195651160941,-0.5479591277194809,-0.16548077337440778,-0.08038196804480949,-0.14396744440553275,-0.6753795329721407,-0.5043869179515867,-0.46599331806136074,-0.1868145822547998,-0.5646425131596878,-0.2857869103895393,-0.0712444150202975,-0.18937252348674058,-0.5478607867944247,-0.2311508465114874,-0.031030055970234813,0.04518111522746384,-0.6014291171842333,-0.1410344101510131,-0.06945185505705496,0.11811492742165658,-0.4430170668744069,-0.13416804246116276,-0.33774609908747594,-0.17982563498169907,2
5.85,17.5,4.925,3.05,10.425,15.35,3.65,6.75,403.0,1141.0,308.0,190.0,629.0,818.0,236.0,449.0,20.0,20.0,17.0,15.0,15.0,11.0,12.0,21.0,-0.42346567494949605,0.11109008218578903,-0.04787818422654858,-0.10074377142799948,-0.5091353137096284,-0.08051666434209832,-0.0671954948115948,-0.13987966082100092,-0.3407015893576448,-0.1145372048217029,0.005013730622541336,-0.24036662026573727,-0.370187578730812,-0.13076283874359937,-0.1447579619982257,-0.41291315698305986,-0.28279723603715373,-0.2135717066365788,-0.28636818583016405,-0.2245242379158865,-0.16495636004491304,-0.43000349734713184,-0.2960412555809842,-0.394430419765037,-0.4201436692464573,-0.08385431100799486,-0.062126096728101925,-0.3005270405000295,-0.3479987798938362,-0.10242100797408397,-0.2607074175974868,-0.33094284440973054,2
4.5,14.525,4.875,3.475,9.25,14.025,3.275,6.45,288.0,981.0,239.0,194.0,628.0,832.0,214.0,416.0,19.0,19.0,11.0,13.0,21.0,15.0,16.0,20.0,-0.3027401960938555,-0.13849431386643,-0.03913069187324342,-0.1711394728067444,-0.39269626207264174,-0.4055919862789847,0.1383637438916751,-0.22015908386177382,-0.185330620982244,-0.20459050421513184,-0.08623268815392296,-0.053073688884595474,-0.33687396691548227,-0.34187274521650785,-0.08074557341956759,-0.005033973989557275,-0.5960573002653141,-0.2794931873140158,-0.34413824467107407,-0.33961054711111915,-0.4064630312852671,-0.48754390085741617,-0.31844651773817145,-0.3571584646936721,-0.5529315213515529,-0.35180960335290895,-0.1215914217918552,-0.2083301358872461,-0.6354797287425782,-0.35871498819559827,0.0404527299453178,-0.032147960628516416,2
7.5,16.325,5.4,4.025,11.55,14.525,3.375,6.65,474.0,1069.0,354.0,234.0,810.0,939.0,224.0,428.0,15.0,15.0,11.0,15.0,20.0,17.0,23.0,17.0,-0.30531681018121065,-0.1338812408565066,0.002952518970875043,-0.2620785061593556,-0.4759317849760697,-0.43229893418527776,-0.413351729611986,-0.44225401625078564,-0.4366451767149002,-0.3348973475401387,-0.28148752587134196,-0.23060746023111378,-0.40870460017033555,-0.3741376155449599,-0.17454022372366407,-0.35178048684588675,-0.6954081443245378,-0.21064633161985866,-0.058734628198999064,-0.005672670076432108,-0.49874462649508305,-0.3081888365102924,-0.2549095614395057,-0.16779338903334878,-0.6217786405709603,-0.4811112888019968,-0.4018715063228539,-0.4484456212118113,-0.2736780496259156,0.02875848358963474,-0.04273502717659923,0.057269304909717544,2
5.55,16.35,5.225,3.375,11.9,15.225,3.65,6.1,309.0,1132.0,336.0,206.0,832.0,1021.0,230.0,332.0,14.0,18.0,13.0,19.0,19.0,21.0,21.0,13.0,-0.06806211511719604,-0.11382233384712395,-0.41231920280801343,-0.3603412655449951,-0.7990587821414059,-0.6104899002119473,-0.4257090672319947,-0.135284745203375,-0.5144727490900971,-0.4016267600052486,-0.30515772085140136,-0.3649152923487947,-0.27654663711336674,-0.22180823131733496,-0.02604985719811103,-0.3686240952443735,-0.7105986150179922,-0.21521345425917257,-0.3413424482684778,-0.25406074529073075,-0.7672925981928957,-0.41209595242996155,0.01529857658109171,-0.06853298209395375,-0.5601169173512313,-0.30225300286303886,-0.24470923973133313,-0.029396233075251094,-0.16557608132701365,-0.5495457587599484,-0.21619720473722648,-0.21273642133074624,2
5.725,16.6,5.8,3.275,10.725,15.3,3.0,5.85,304.0,988.0,361.0,201.0,660.0,927.0,205.0,371.0,13.0,17.0,14.0,18.0,14.0,15.0,17.0,14.0,-0.1409784932258914,-0.3061263379416637,-0.017814297113841752,-0.20080603615443315,-0.39709426402572157,-0.4244050073262711,-0.1065494856971958,0.02042714233636037,-0.5311139349769657,-0.6854804527087273,-0.3879931891928356,-0.5653497944008417,-0.5328537751602477,-0.3195195730332262,-0.2966366386408747,-0.300972324486461,-0.2981142278583226,-0.14911150360499237,-0.44431469422906406,-0.044672008259024176,-0.5714692706303122,-0.5404876885863323,-0.5766960808448638,-0.45257367250004293,-0.4677249352152407,-0.33756775464567224,-0.20330060840909772,-0.3430512251119484,-0.27667115134849113,-0.4375923621010576,-0.09205031995987017,-0.38865868014253,2
7.375,12.3,3.475,3.175,12.05,14.4,2.675,6.6,449.0,748.0,215.0,172.0,764.0,871.0,160.0,445.0,20.0,15.0,16.0,16.0,20.0,17.0,11.0,17.0,-0.4376126801095515,-0.1342371892915549,0.04654232497734158,-0.11208727969893975,-0.16732191341039374,-0.012998345350273548,-0.1758705343709078,0.13123864621757927,-0.3551487582952598,0.11471048812830957,-0.10519805353394038,-0.2632095924538378,-0.25443494131123146,-0.058662765470006026,-0.02594897744626774,0.14823991905868528,-0.5674827396620853,-0.3998865850974965,-0.29473489275412174,-0.15456415569300183,-0.2942686532277966,-0.13853859168288585,-0.04995852062910849,0.012120342001911592,-0.28224510808416586,-0.5576335386569676,-0.3344751995883342,-0.46873443015356275,-0.7303117411783729,-0.4986890202641386,-0.3450334480180398,-0.32858102879595436,2
7.3,11.075,3.35,3.125,6.9,13.975,3.325,7.125,472.0,682.0,177.0,172.0,482.0,773.0,215.0,396.0,17.0,16.0,13.0,16.0,17.0,16.0,20.0,15.0,-0.5576604166959546,-0.31273454946619833,-0.5314342102397335,-0.5282187658642074,-0.27992384770848644,-0.21713165436287515,-0.0409392682474683,0.031017977745828644,0.149972680943344,-0.26045016240897184,0.16378987791662197,-0.07923829280272134,-0.06340608957629412,-0.05191077069406856,-0.11725645241472031,-0.04244589408155837,-0.535818798028938,-0.07722381808854602,0.06226394023054277,0.03300549103927845,-0.1283696719505146,-0.23316217736134018,-0.08574410611711063,-0.20109447695945115,-0.24103489774143838,0.03586266583695231,-0.13464380109381022,-0.08094508469882887,-0.11474493253899282,-0.15472954370853018,-0.2044631780487029,-0.2496102150280639,2
6.6,10.925,4.925,4.375,9.85,16.175,4.25,7.075,352.0,721.0,270.0,289.0,683.0,1039.0,251.0,459.0,13.0,17.0,12.0,15.0,21.0,18.0,15.0,21.0,0.06487629037231016,0.005987529361832299,-0.15016479057050405,0.018925860729786404,-0.3555567019055911,-0.008198517051948285,-0.1754322324720942,-0.39853037092995336,-0.11858665527491663,-0.00766924595488148,0.029213415490334564,-0.5057996247111176,-0.6138591205805685,-0.4009316322526503,-0.39511175661895803,-0.20196764237827436,-0.6005081170811308,-0.2918081200525975,0.14616179974047264,-0.11482566358339014,-0.2982123894634009,-0.35388670968798,-0.08463133465701479,-0.23999574717383113,-0.3416564787669674,-0.32104566650425603,-0.23844164694979425,-0.13021302077595226,-0.5030655220377362,0.003338177047586824,0.04762503012799331,-0.035627560274209026,2
8.55,14.125,5.475,4.3,10.125,17.6,4.025,8.15,488.0,994.0,354.0,258.0,693.0,1085.0,251.0,503.0,17.0,21.0,16.0,14.0,19.0,18.0,16.0,14.0,-0.21895723215730972,-0.1805426477794782,-0.19617918157016953,-0.41544973906640964,-0.7032456694070859,-0.40149616972567825,-0.03567702889655382,-0.1664001249206201,-0.47383443516478674,-0.47841132030558753,-0.35447077445450503,-0.3970252485589689,-0.3386038303495945,-0.2617412337060396,-0.15733756700372614,0.03751392400087206,-0.6621187311693868,-0.34380703087210956,-0.12152457953366595,-0.16617127669482712,-0.481619662958893,-0.27877435834833125,-0.21463567362238,-0.07557597009905416,-0.48588245575884004,-0.3949272626939327,-0.21472258879138426,-0.010821702175077807,-0.4935563909085618,-0.27968070037274967,-0.2948194242360117,-0.21356557670802961,2
10.275,13.075,4.25,4.0,9.275,19.1,4.3,5.85,654.0,826.0,273.0,229.0,682.0,1212.0,297.0,344.0,16.0,12.0,16.0,12.0,24.0,14.0,18.0,16.0,-0.14408412012829794,-0.2679203945933781,0.0008303315235307196,-0.28330222836247165,-0.3711914063146277,-0.2108810745863996,-0.2578905861468165,-0.12149763780812413,-0.5966656982075099,-0.41918527913345915,-0.3686018216412584,-0.3218987315739517,-0.4277752043846668,-0.36738476960715455,-0.3321885467550018,-0.26633248686282607,-0.6464383232907315,-0.13479756322072795,-0.14415932210716095,-0.08640846148452223,-0.3918895469870763,-0.1274099490849096,-0.14976320673173873,0.0755790185513177,-0.7131524438965248,-0.604836404136608,-0.3475961764040711,-0.27445095022941485,-0.4244682143163954,-0.1496731981326257,-0.20657535033306634,-0.17634259955151188,2
16.025,18.725,6.625,5.275,12.325,18.8,3.7,9.025,1150.0,1207.0,434.0,327.0,765.0,1107.0,234.0,505.0,22.0,22.0,14.0,18.0,17.0,16.0,18.0,12.0,-0.29369612161109115,0.10061220090873914,-0.06048913070002026,-0.18355264977529795,-0.614613664006701,-0.4663264521784206,-0.4399222547638786,-0.4359740510693418,-0.5295319701133668,-0.48344025605431135,-0.2954963407859993,-0.08749295577703602,-0.5474613135273626,-0.5360813840060505,-0.3040458574022701,-0.20638377455964768,-0.28770507196797473,-0.15744733399655625,-0.04562590148942997,0.0554224123795075,-0.12238338860735436,-0.1344523468019059,-0.24788214235810663,-0.13346042728803598,-0.21988376701831464,0.03604297273888814,0.014693306461919275,-0.15367850517216122,-0.12572645999050078,-0.15554625277930242,-0.20846670880647375,-0.10808433641398241,2
13.15,15.725,4.1,4.6,9.775,17.275,4.575,9.475,791.0,1056.0,256.0,292.0,572.0,1043.0,301.0,613.0,16.0,20.0,11.0,17.0,13.0,18.0,20.0,18.0,-0.13861716606959157,-0.12420541519822056,0.015413911675583218,-0.2898761477351448,-0.5686615706712957,-0.4428733044970739,-0.02786915379427857,-0.08170012100669656,-0.30858774960610236,-0.28902504980227745,-0.3462377347297407,-0.07036504598562372,-0.6155543655155647,-0.4690255438526119,-0.2715341238785351,-8.160465099692708e-06,-0.32109085203237486,-0.46047805999945496,-0.3201573669030597,-0.14318924595070834,-0.4518747305771425,-0.5225670407950371,-0.355137453169356,-0.3681007983907551,-0.41740376470345947,-0.19607715296665731,-0.13176519955972954,-0.5127593631901374,-0.36998208866610016,-0.031022071310401734,-0.15955224012053107,-0.390213796718043,2
13.95,16.925,5.125,4.2,13.175,18.65,5.95,10.075,966.0,1034.0,335.0,248.0,893.0,1238.0,373.0,628.0,17.0,18.0,20.0,13.0,24.0,17.0,18.0,18.0,-0.3901729280164538,-0.16228382391180324,0.041655261664272844,0.09688564476436362,-0.4218768188165476,-0.30918331790105147,-0.10905722497338856,-0.19307653548422393,-0.5482902929031062,-0.2780693110125926,-0.0903943884982391,-0.22406780090870274,-0.42468470969765665,-0.5048064760285177,-0.5458363705100255,-0.38571871516258005,-0.3635993888202977,0.07797026787229254,-0.0031083647321594925,-0.2479752316143543,-0.5399134160088043,-0.5639404862826312,-0.23164274803348192,-0.4101020373747304,-0.43025981974376015,-0.1272259746015449,-0.22935824279555628,-0.44482323662146883,-0.41905016672271816,-0.24312358412154203,-0.05121332656107623,-0.18972966207884914,2
20.25,18.95,5.975,4.1,13.15,18.225,5.65,11.8,1402.0,1076.0,370.0,214.0,894.0,1128.0,347.0,787.0,23.0,16.0,15.0,12.0,19.0,20.0,18.0,19.0,-0.4947913589351441,0.09544147445499077,0.22580970968544645,0.19477114691081393,-0.14400610995935337,-0.3820542125338763,-0.186748085973596,-0.2994642019801713,-0.18496919681969395,0.18640103276437142,-0.028209035357269714,-0.11503639308918484,-0.1846096384665981,-0.5109909178285771,-0.26122871153125526,-0.4536439925757602,-0.3980921365107673,0.10204297845039764,-0.15459579627292422,-0.13641083158809453,-0.45937714544990665,-0.5288599947616898,-0.2337273803027445,-0.33470981716807224,-0.4386214876739727,-0.31862283513210987,-0.346561678215091,-0.3668603195427085,-0.6094857471843275,-0.2534372480202467,-0.20821150347539352,-0.20987996686029223,2
22.8,18.875,5.375,4.975,15.375,17.4,4.375,10.25,1514.0,1123.0,310.0,323.0,1072.0,1164.0,290.0,710.0,16.0,18.0,15.0,17.0,19.0,18.0,12.0,19.0,-0.5641314124621224,-0.27474061786159193,-0.3836339220536777,-0.10101335339268036,-0.41527577308688995,-0.07056797464922379,-0.2326759694868082,-0.09040462362242961,-0.0851128506503121,-0.1470815254222354,-0.40631459940772674,-0.15448000858510233,-0.46124536590186277,-0.14216594765734505,-0.38535079501846703,-0.4907872348778492,-0.607591207053821,-0.2596509493487719,0.0636007662689635,0.11741684935673669,-0.5699445834334553,-0.2558366102055621,-0.23110522832356,-0.43530997679681344,-0.4107937937294657,-0.1496782896703195,-0.25378100313226093,-0.5874685034515976,-0.6574928304892853,-0.20878102469262652,0.15124134525132862,0.1119646625323765,2
17.6,14.625,5.925,4.425,14.025,24.9,4.975,10.425,1183.0,972.0,380.0,262.0,859.0,1725.0,335.0,695.0,17.0,19.0,17.0,16.0,12.0,20.0,17.0,18.0,-0.4020489152478111,-0.09842979977304908,-0.14313633120701982,0.07787914133627313,-0.25746819481600675,0.13197994651957126,-0.09924960677185088,-0.341189441401829,-0.4927947642233084,-0.3155349841732002,-0.11209325358702939,-0.2483123046934831,-0.4849264947451002,-0.4126579700135526,-0.4251963606995361,-0.48986383362817115,-0.35269696174052667,-0.2659469476763602,-0.32980460697665936,-0.5374170271007546,-0.5369187795295594,-0.25932550096769685,0.03737228833462643,-0.04904181278071737,-0.5817122405483172,-0.5061301720384408,-0.16503025068543323,-0.20809998002711644,-0.5673309611642384,-0.47338665421827375,-0.17801230063590923,-0.07566567439361023,2
16.475,20.675,4.425,4.3,12.325,21.55,4.575,9.35,1150.0,1269.0,287.0,267.0,808.0,1187.0,259.0,571.0,23.0,16.0,21.0,20.0,17.0,16.0,15.0,12.0,-0.4368775660884289,-0.021244480290081903,-0.3602110816560092,-0.45849157314461053,-0.4297010203616752,-0.30776054790854673,-0.33925940303585334,-0.2779193810739076,-0.6322755627769856,-0.5461269582857875,-0.46994182270686496,-0.16261251717218048,-0.34339667038008004,-0.28291561867156273,-0.0159533441422352,-0.09089797396065194,-0.27006226957415647,-0.13384686439117108,0.14647962669228026,0.10009215028689339,-0.03140762316909615,-0.27955120048974835,-0.17023919450826216,-0.17839566436759682,-0.19854497871732274,-0.4137278780572564,-0.004783644237718808,-0.18596792625275954,-0.4606695378783322,-0.27045842960207356,-0.2244032538218308,-0.15117188217483504,2
17.225,18.325,4.6,5.175,12.55,22.35,5.0,10.275,1142.0,1131.0,309.0,317.0,732.0,1215.0,272.0,674.0,21.0,20.0,20.0,17.0,14.0,18.0,16.0,20.0,-0.5168827252333882,-0.08089304933908872,-0.06184206896953043,0.02735633091311104,-0.31006974471415666,-0.11426585238620617,-0.18374797527343356,-0.1592802921460017,-0.31824100752813705,0.32180828071063133,0.12261435553953078,-0.11565053101047552,-0.15383229998673542,-0.09371333284823566,-0.050891648740350716,-0.416680808052565,-0.30989326547346185,-0.13933299846805125,-0.15552801352317944,0.05217840571544496,-0.0723541428546364,-0.3858985474435945,-0.03016566791080943,-0.07410483543751592,-0.1028372290481036,-0.1375898889068231,-0.12599271157424932,-0.11817070067848195,-0.5107470033893602,-0.2516646184146517,-0.04379460018431068,-0.11148770301521785,2
20.4,21.225,4.975,5.25,19.2,20.85,5.875,9.825,1242.0,1276.0,332.0,371.0,1266.0,1488.0,369.0,616.0,16.0,17.0,18.0,21.0,21.0,23.0,19.0,15.0,-0.6213429104990521,-0.6122015608660542,-0.46709268211821875,-0.2376751707394764,-0.29086021898372805,-0.26953390803868255,-0.2789590741090946,-0.16737046044920748,-0.20845838027695626,0.00037443049034814,0.043315652054283706,-0.14537769163674588,-0.6518205112933497,-0.21624984035710565,-0.26120443888611655,-0.13368558002415454,-0.6733992639090395,-0.35905912765395764,-0.1630899896828582,-0.1772012969588442,-0.9029846002960931,-0.5041600360240232,-0.272899311127349,-0.18009623252145301,-0.7105644670030272,-0.47869613686719537,-0.2554234687679115,0.007565918593494285,-0.27932602901891124,-0.22347611116981222,-0.1052621826147343,-0.02204958235585448,2
27.175,26.5,6.4,5.275,18.0,22.425,5.15,13.3,1743.0,1650.0,339.0,333.0,1251.0,1507.0,341.0,924.0,19.0,18.0,12.0,12.0,19.0,20.0,16.0,22.0,-0.5790537877171694,-0.429954209417138,-0.34748341385045206,-0.3484522747638112,-0.53403008975675,-0.5209634204506255,-0.4433975104869612,-0.4532020763894674,-0.10220792546552782,-0.20103560300594722,-0.2395057433250347,-0.22293687762981623,-0.45407099487472796,-0.4069713694077767,-0.46776433424832264,-0.42098992478904124,-0.551133914790483,-0.20528547842743317,-0.2791399541854037,-0.1283018601752329,-0.505624714180313,-0.09644015822190273,-0.302684361057915,-0.23044437487167302,-0.45632582133667016,-0.12928143388733537,-0.18376488444139805,-0.08812873990713109,-0.6355213527860862,-0.4455013127567707,-0.30723980469407475,-0.276815639698248,2
23.3,19.825,6.35,5.425,13.825,16.475,6.0,13.625,1482.0,1246.0,356.0,299.0,855.0,998.0,377.0,916.0,15.0,17.0,19.0,13.0,18.0,17.0,19.0,17.0,-0.36352171211959705,-0.3272552985296791,-0.11671111507587377,0.05478208709569393,-0.31766880237912054,-0.49697338236741795,-0.22923154232879414,-0.36154394228395564,-0.23340781880523748,-0.31567688971398833,-0.20415507276939557,-0.2213309599784249,-0.5843298796348864,-0.7332039399049755,-0.6030731470615622,-0.38419628681178825,-0.3469814074114807,-0.1729187625815883,-0.08508425679803241,-0.020694046400887837,-0.27035115532738657,-0.04427298300893701,-0.06298091840707076,0.017227524890763363,-0.5089500823379021,-0.2162336461910943,-0.4739233008437459,-0.4263314331696914,-0.6442116488187452,-0.5754097967200845,-0.44754869469537245,-0.47248392234182063,2
20.85,22.35,6.25,5.025,13.075,22.85,8.025,12.675,1437.0,1441.0,408.0,320.0,777.0,1549.0,534.0,802.0,18.0,20.0,16.0,11.0,16.0,20.0,18.0,20.0,-0.4649965476886393,0.022053724146397703,-0.03987849215549795,-0.08156058088571393,-0.6476336547920066,-0.5614277343461838,-0.3809198980728129,-0.41096263809593964,-0.36773903525938745,0.028130899591405183,-0.25099956801188694,-0.42783208949674095,-0.33820679285719285,-0.1472112807926816,-0.2578869903262365,-0.21962778837229405,-0.22315712977392801,-0.18714918085711896,-0.10937551449330728,-0.4217764737557334,-0.6737647656617386,-0.4210490123048914,-0.3326391430712448,-0.20474384059348802,-0.7168008374992547,-0.4999180029528675,-0.26839718116377353,-0.03359400607137967,-0.4720373001791298,-0.40288079827942175,-0.3368156252190602,-0.3884665157203139,2
24.225,22.2,6.125,4.55,17.35,20.175,6.8,10.225,1680.0,1464.0,388.0,289.0,1167.0,1164.0,425.0,722.0,18.0,19.0,16.0,18.0,20.0,16.0,15.0,19.0,-0.6667109698939775,-0.4510961662071427,-0.5481945717433291,-0.4713098829656227,-0.3706007625004829,-0.18290091245091145,0.16732466863949044,-0.3435804370160575,-0.47497704488454523,-0.09755339636123,-0.15453538292410487,-0.09037960687741954,-0.32256782231679854,-0.09823106596191056,0.27515986702496037,-0.12383692400836491,-0.4938539145543351,-0.07075240500663177,-0.017079145554055302,-0.22838461904460583,-0.2893620230566339,-0.37701493667289165,-0.4135434218572534,-0.4240850808161794,-0.4952899781213352,-0.17600847667755887,-0.33517089043823967,-0.06339377920047808,-0.5563192431138226,-0.1474097707370394,0.10177652113748681,0.038051670366742944,2
20.125,18.075,5.575,5.1,13.425,17.375,7.6,11.925,1304.0,1138.0,308.0,344.0,890.0,1051.0,505.0,840.0,11.0,20.0,14.0,20.0,18.0,18.0,18.0,21.0,-0.3798747765479259,-0.2303445825021424,-0.09962767985656527,-0.4241264328895427,-0.23548975353950882,-0.1020067320862189,0.07874805713168267,-0.22104954159773066,-0.34186471983379774,-0.24270861624045517,-0.24349441095736615,-0.16251228004482654,-0.49262774209789667,-0.29334425367464134,0.12505669558871135,-0.10459239920476386,-0.31592338291079974,-0.05845071474878763,0.11993527656329808,-0.1679662078955491,-0.21003647384021454,-0.07740699719325353,0.16593160421083275,-0.16919076803369326,-0.528595519650348,-0.452092788822482,-0.31218889771829655,-0.28530708874543054,-0.4041223242362574,0.09061358481883998,0.2650396482117692,-0.24762127852782229,2
19.475,14.675,6.1,5.9,16.3,16.15,8.45,10.025,1283.0,786.0,405.0,381.0,976.0,982.0,535.0,608.0,19.0,13.0,19.0,16.0,16.0,16.0,20.0,17.0,-0.16459317933856388,-0.2560319274737458,0.2719160612705669,-0.1542431641010492,-0.057742164095432945,-0.2467901049870441,0.030353208789877295,-0.12640851408708412,-0.5577620666028915,-0.6414982748492846,-0.2099073253466932,-0.4611819946619352,-0.3739289318869791,-0.27701674915151225,-0.20648377697579925,-0.35751782696374296,-0.36850411550136564,-0.21762208717018988,0.09354477599427358,0.04912932189741783,-0.23661820586616553,-0.21929315355433812,-0.028176763340496583,0.26023083712772976,-0.44316423870714444,-0.3970296047398269,-0.2515896075686012,-0.439750348649737,-0.19561027338557269,-0.09829996672862919,0.06348720815531211,-0.34380938499560515,2
15.975,14.95,4.95,3.65,16.975,20.375,6.525,12.65,916.0,895.0,329.0,241.0,1003.0,1130.0,399.0,744.0,13.0,15.0,20.0,17.0,17.0,16.0,14.0,17.0,-0.06229622435891424,-0.27656668980884036,-0.13513317798354016,-0.018712048300571396,-0.2850377575329949,0.03549253455058062,0.07453049826834897,0.16011775284314927,-0.5950494836027229,-0.17190316672942488,-0.06376171329701452,-0.21085636376797892,-0.5000133866854573,-0.6630209808191542,-0.20490870633979957,-0.42096168993089966,-0.5000412150966247,-0.46013690503004245,-0.23763269595713182,-0.15632899560614372,-0.442265269729502,-0.3753745475756696,-0.4143944110940327,-0.2056422138075345,-0.22404400981239522,-0.3604520389097219,-0.01011795904205046,-0.3779109437615189,-0.424165444112003,-0.16764239987999652,-0.04143627037077652,-0.21577121074419578,2
19.675,20.175,6.525,4.675,15.225,25.175,4.9,10.475,1228.0,1419.0,419.0,283.0,1077.0,1370.0,332.0,635.0,18.0,21.0,18.0,19.0,17.0,16.0,17.0,12.0,-0.23298200189518647,-0.061740437729857205,-0.039287074797671274,0.03490278574510123,-0.45313216033139925,0.02943423986279209,-0.09279146456790473,-0.1999108902389049,-0.3930705090039862,-0.1334117976909586,-0.21260853011726066,-0.38923388281951227,-0.37200739759291784,-0.5505730819365944,-0.38988047707351614,-0.5197821914034388,-0.5272568891122654,-0.027852570990003867,-0.06773845151310869,-0.2586990830888707,-0.2801051711351133,-0.06002377124782831,-0.3902860274602857,-0.29283665400829206,-0.6470230298718245,-0.4329921518946224,0.1627467869834738,0.05813393022907677,-0.6975267532494517,-0.6011033346318209,-0.2415444412619679,-0.18673506584305682,2
23.9,17.575,7.425,5.5,15.775,24.95,5.1,9.75,1611.0,1046.0,495.0,331.0,1115.0,1431.0,314.0,583.0,22.0,17.0,19.0,19.0,22.0,16.0,16.0,17.0,-0.5080306931642168,-0.26555993692024643,-0.23628732913466963,-0.1043960087951471,-0.3141985565543674,-0.3603554800580577,-0.2373057837342017,-0.4178674129769304,-0.5490426132280116,-0.29839773380095613,-0.3800624064253554,-0.4299555294577143,-0.19212798135156883,-0.29453306384340666,-0.02163487921313173,-0.43292457317798416,-0.3487296915774061,-0.12170693749704614,-0.25344084024704444,-0.25153614776208727,-0.13681010847473413,-0.36814646159576814,0.011560150811161945,-0.5593233454626326,-0.5757884914178055,-0.4360263534816204,-0.2739812139713849,-0.37911939661585775,-0.49490590171356813,-0.6819857475749629,-0.34589186275231487,-0.3198851889322504,2
19.725,21.875,7.85,4.825,17.0,23.6,8.125,10.575,1340.0,1260.0,530.0,284.0,1131.0,1464.0,522.0,735.0,19.0,14.0,20.0,15.0,20.0,13.0,20.0,19.0,-0.4378988118460108,-0.13208366057435605,-0.11860314055165538,-0.10808551075035999,-0.3368067443066162,-0.35932392756347914,-0.2911874035950645,-0.34134912634068604,-0.629691620148061,-0.1653062469726678,-0.15190153173119406,-0.20895896919753226,-0.4852268101329066,-0.5217670445090743,-0.3604217120586849,-0.3101303603467938,-0.6337503511721497,-0.5394378256567245,-0.6680647795255937,-0.23971543543246188,-0.35176749192592216,-0.07276852353641916,-0.12601413614226095,-0.03638519583000208,-0.4757653088652254,0.06699730440108659,-0.07398364368196443,-0.3853829437499824,-0.49719397459198766,-0.17040760486794254,-0.37067495991062627,-0.09818017673796214,2
24.6,21.125,7.1,3.525,14.775,23.025,8.9,10.575,1644.0,1236.0,421.0,231.0,902.0,1359.0,556.0,714.0,22.0,13.0,14.0,16.0,15.0,14.0,14.0,19.0,-0.49801587212906634,0.059486546040778375,-0.21618662853705983,-0.2998079648833021,-0.43371724449752524,-0.35330518382091125,-0.3471998520414147,-0.41497368384131367,-0.41212785517918127,-0.47003970630713826,-0.11119893672090454,-0.22331658442832375,-0.6235062998947014,-0.5638123945126234,-0.41985209604674645,-0.36110842959938416,-0.23515092481829047,-0.24020094592371768,-0.3690062922070796,0.18870015978424173,-0.19456671533668812,-0.07385988864095318,-0.34216768425525185,-0.3111928118623372,-0.47094061095113976,-0.2603986501558988,-0.27002208806522215,-0.3316742567975773,-0.4873594341939327,-0.09425717019885987,-0.018752434437367835,-0.0699095256583768,2
20.4,26.8,7.2,4.35,14.575,21.45,7.575,10.5,1283.0,1772.0,448.0,302.0,1080.0,1354.0,466.0,670.0,16.0,20.0,19.0,17.0,24.0,17.0,15.0,16.0,-0.3393054958426038,-0.1251727084486348,-0.18301641523581375,-0.43188663446393616,-0.555490150375635,-0.46704158818547664,-0.2943873240685829,-0.332908804081463,-0.45839787515873376,-0.3972217662860332,-0.4668887131312436,-0.1415687759847976,-0.6635174373513708,-0.41819125405506236,-0.34009967182510753,-0.0340159778254867,-0.5538326309667003,-0.2888663802805901,-0.19602810463110965,-0.2244766604661713,-0.26970891060872987,-0.0789734004848475,-0.26199969766198505,-0.36993426112341504,-0.3117567397856722,-0.10559739473384817,-0.14313619128309435,-0.15331324260899273,-0.35185797309911765,0.17614672592877173,0.009685059705811492,-0.013255618113361763,2
19.725,20.1,5.375,4.85,20.7,19.8,7.825,12.475,1338.0,1351.0,325.0,288.0,1487.0,1447.0,502.0,837.0,18.0,21.0,16.0,17.0,20.0,20.0,19.0,20.0,-0.7007657036552734,-0.40528129447344957,-0.23746965894195607,-0.20642173972098074,-0.24019951791668825,-0.31261132842917516,0.16695238831005338,-0.3514014631080313,-0.2514637331046147,-0.21369781741387356,-0.10233888789814803,-0.1453809829951395,-0.45755299264502264,-0.4019470346751367,-0.2790749881528183,-0.10043936718537311,-0.6349670901835806,-0.16681759919601702,-0.07226066977772651,-0.07321657742708194,-0.6933096767323157,-0.41111027467471656,-0.2044208931288222,-0.2927163490214064,-0.4772774279724629,-0.18929253446450062,0.13383768529356263,-0.019585378951793655,-0.41087164646883906,-0.2606058650347281,-0.21853977878150319,-0.14560511999578998,2
20.025,13.8,6.6,5.55,15.25,22.575,6.65,12.925,1338.0,799.0,411.0,311.0,937.0,1513.0,431.0,895.0,20.0,17.0,18.0,14.0,18.0,17.0,16.0,20.0,-0.2508544432835909,-0.19687152398787927,-0.34264965707970924,0.07308664983412216,-0.1432911472495736,-0.08759375615765964,-0.05709725314641359,-0.05223800248849325,-0.27992469595421976,-0.2444637518336825,0.028537317999062,-0.2753060445220519,-0.28507137933897625,-0.7796531509405286,-0.2647083458365804,-0.4975244789991725,-0.3675356639855697,-0.31690607138699506,-0.010353517789158734,-0.2254394562524215,-0.6516319138494028,-0.3694241699471483,-0.11777268654899262,-0.0436883458038782,-0.3780075243157533,-0.21838972322846628,0.161371937469303,0.028399887989931035,-0.48567063914479947,-0.09316513680714844,0.2098872117731794,-0.13989367321885138,2
21.85,19.15,6.075,5.45,11.475,17.75,7.975,9.875,1394.0,1026.0,394.0,374.0,683.0,1046.0,513.0,628.0,18.0,16.0,20.0,20.0,17.0,15.0,22.0,16.0,-0.21693727391753237,-0.07338631343296724,0.03874889475778189,-0.10347180664400059,0.026949137719680164,-0.1214677589250941,0.13570322913270727,-0.39354605864209696,-0.429003351683925,-0.3048464921718232,-0.04894469057907209,-0.1183692663741936,-0.6485906790740774,-0.37080090560963386,-0.28894734522341897,-0.19520163190771286,-0.07678814416968531,-0.09208234116006886,-0.10522931673218253,-0.043545249670026626,-0.1486230304900317,-0.20094251205696667,-0.2888755047474524,0.21364390310979403,-0.5025813742398944,-0.5042793889013193,-0.4696518378729762,-0.2638815291774355,-0.19020938534761134,-0.1561282822818842,0.13333293746012106,-0.38221744173666033,2
21.75,22.5,5.55,6.625,14.2,24.0,9.5,10.75,1306.0,1553.0,364.0,420.0,879.0,1484.0,673.0,708.0,16.0,22.0,13.0,14.0,13.0,17.0,21.0,16.0,-0.40743520403110306,-0.3300230046745784,-0.07477485300631471,0.057617288610471835,-0.5786133039330531,-0.252321403064998,-0.021550074731530162,-0.21769739735864263,-0.3355487146084491,-0.3245197388802354,-0.09683394158223395,-0.3358804784622622,-0.43522039869559065,-0.2886874256983773,-0.3354456491343192,-0.24929921897738794,-0.45827248928215747,-0.2741147044671545,-0.22345400609836807,-0.14025331946285638,-0.3397260297391444,-0.30676249660952365,-0.3192846402984964,-0.33265647151552297,-0.6748137844489468,-0.4738389457599493,-0.48291558971847903,-0.3520474172261826,-0.42664457940447886,-0.13791813308368817,-0.06268933781252158,-0.14766758259651117,2
18.575,20.925,5.125,3.925,12.4,21.675,5.425,9.775,1219.0,1526.0,327.0,220.0,780.0,1339.0,354.0,646.0,20.0,24.0,14.0,13.0,17.0,21.0,17.0,17.0,-0.566701518232138,-0.15447403380086028,0.05347827650038879,-0.007496124393507496,-0.7889843146407051,-0.1767396056283924,0.10128522225796496,0.01499106931993554,-0.29164666209457296,-0.07328139518180757,0.021079491099501795,-0.24132088316245223,-0.16232178111280232,-0.16865672101116877,-0.12958281070793587,-0.10267225605174597,-0.3545908025283024,-0.2567725059244821,-0.1595003887876191,-0.03800728104990359,-0.2341370641284751,-0.34310552210213996,-0.047506896591265356,-0.08130477614772398,-0.4938714294671045,-0.16787247864254512,-0.22623847948907647,-0.28993912441984904,-0.6272175541836099,-0.5016256263338476,-0.26367548351704995,-0.22039635333422872,2
18.625,13.125,5.525,4.85,12.1,24.325,7.925,8.35,1266.0,898.0,329.0,258.0,787.0,1490.0,517.0,545.0,17.0,17.0,16.0,12.0,22.0,18.0,20.0,23.0,-0.4173937099615524,-0.06055073244344152,-0.13203649513689986,-0.16277674501056705,-0.41991450335167585,-0.2676227113400374,-0.2827219075405967,-0.4553983639553671,-0.16041742978131768,-0.2820710453864957,-0.1413075442190517,-0.36463624573882614,-0.016101812482368572,-0.12221532177552029,-0.08627514795340194,-0.5440941610603426,-0.2935775507860772,-0.023106603424707696,-0.09580829548213553,-0.01420600427716748,-0.3955785371744239,-0.2255679408414186,0.09491973674365146,0.134131965118286,-0.4550189333651812,-0.14816118482702,-0.019709955166547857,-0.004842195532147799,-0.3890023947094089,-0.06309082221130821,-0.15815372334194147,-0.07190088227600074,2
14.825,13.2,6.025,5.225,14.275,20.85,7.4,8.55,1008.0,774.0,391.0,322.0,975.0,1282.0,458.0,557.0,21.0,17.0,18.0,12.0,21.0,16.0,15.0,17.0,-0.3984497575281205,0.02936912623980583,0.1905847060015254,-0.13521109254339977,-0.23393644407529024,-0.11902330142921506,-0.1691672328238919,-0.050910812728314686,-0.3990273714212909,-0.24592602570775235,-0.4202776158956555,-0.04701633438540209,-0.4749603236610831,-0.571382168413902,-0.4071052839982354,-0.39913728545720184,-0.7334133702375079,-0.5230883758489856,-0.3600131813500501,-0.34566242430503274,-0.26508301659025146,-0.14157285586403895,-0.07843348865885275,-0.239629266767097,-0.38857684086914895,-0.28948745327088915,-0.11277072027812789,-0.4485773072776004,-0.4403223467635727,-0.02713962302885075,-0.07565708679995295,-0.110046108143203,2
16.275,10.075,4.6,4.875,15.075,24.175,6.4,8.45,1165.0,582.0,267.0,283.0,982.0,1516.0,378.0,532.0,19.0,13.0,15.0,17.0,20.0,18.0,15.0,15.0,-0.3211900712712614,-0.05748846584310535,0.0946902503641289,-0.3361552118781955,-0.281163246683299,-0.013278572395987441,-0.20638025675790747,-0.3567609837592455,-0.07007627110808305,0.07201568937337989,-0.14579474512734633,0.11710586129381913,-0.3375867409043074,-0.17675441295269884,-0.3577794691265341,-0.4183678899194689,-0.6552448902844138,-0.4152956625537111,-0.4042401991283218,-0.24957808657558633,-0.2754039333099211,-0.12723863308048067,-0.23512875345352638,0.0632926411234725,-0.44811548451614513,-0.5884764558607526,-0.3788215694550558,-0.37107077618274553,-0.33901275165920103,0.0018830247410073708,-0.16485314756066852,-0.4560562643395739,2
14.15,18.0,6.675,5.05,13.375,21.975,6.2,11.75,909.0,1249.0,439.0,318.0,870.0,1388.0,423.0,734.0,20.0,24.0,18.0,18.0,19.0,14.0,20.0,17.0,-0.3090629534041282,-0.11552857993837562,0.02588409324040393,-0.22127498352959918,-0.5981581101472276,-0.20462844383463577,-0.2569866849815355,-0.35011424401514135,-0.6129241593154566,-0.31668098566702385,-0.10902809443025074,0.12469480629921574,-0.4380666084203311,-0.1897951184832735,-0.3156150508637873,-0.3289322681264504,-0.3197776302003334,-0.23683965136142884,-0.13393145575558785,-0.23459988462314446,-0.4884883767775803,-0.2449850211620814,-0.028065345368445765,0.23480419837281885,-0.33922212008176467,-0.204889850946124,0.055129215599285984,0.03280773367344663,-0.458476827943104,-0.1307604200166172,-0.05135740097138738,-0.17310548926911576,2
14.425,12.2,5.725,4.05,13.55,19.75,5.125,12.0,1000.0,802.0,383.0,257.0,914.0,1223.0,335.0,772.0,20.0,17.0,18.0,17.0,20.0,17.0,18.0,18.0,-0.5111648613713341,-0.19904362991310612,0.03527772826937624,0.21827314243302798,-0.4205583267494475,-0.15419165503043245,0.03258633635109373,0.2116904758513865,-0.5598492970771743,-0.3440729721331679,-0.2786926679082337,-0.012653486149451854,-0.4102963223729987,-0.44602946950224187,-0.2726784945114501,-0.18099442544027564,-0.3640237305261988,-0.23309141223889976,-0.13176751209987536,-0.22740917274410694,-0.38448008627750424,-0.17556172342562526,0.22392189806580756,-0.05908005390052479,-0.3779749281519269,-0.2776399266320404,0.026713245437900334,0.140113845795337,-0.48326852877819887,-0.35054438265012977,-0.2231184224979724,-0.29311344302320835,2
15.25,14.4,5.45,3.775,11.25,17.125,5.4,6.85,1051.0,976.0,370.0,203.0,769.0,1109.0,350.0,399.0,20.0,17.0,21.0,14.0,16.0,17.0,16.0,10.0,-0.5871150624291955,-0.11104222899636798,-0.28251063817846916,-0.402400828245244,-0.5042560595146446,-0.4605011707544355,-0.11357726233782166,-0.15832488554657834,-0.8473295917302576,-0.6867370521803802,-0.8025733754733997,-0.6404758609499878,-0.29408176668116615,-0.4102070422458845,-0.48787456943744445,-0.03407430510412305,-0.44654691253856094,0.05242067608656551,0.13470033318034827,-0.09245604557868344,-0.4081797898029948,-0.04507888807881295,-0.35625788042623296,-0.28461515983994995,-0.5661791030917585,-0.38042840257553057,-0.15675704289766565,0.13995786730108958,-0.12577383463365477,-0.27102509070106545,-0.041324439177975555,-0.17417152463870844,2
14.025,12.025,4.375,3.725,12.2,21.55,5.675,10.7,942.0,830.0,305.0,253.0,764.0,1333.0,342.0,748.0,17.0,18.0,17.0,17.0,17.0,19.0,15.0,17.0,-0.5823924503350647,-0.08444067450203761,-0.14704162523556047,-0.22891566977105562,-0.5124423632887869,-0.24749899159094327,0.03677714511600642,0.1478822551152305,-0.6557550359763299,-0.40360379006423786,-0.4903091229292163,-0.1820064510088625,-0.8431647136155673,-0.7235378538936251,-0.48349964471750323,-0.3070300248981402,-0.43504407526743677,0.025170224289160218,0.37685918559433595,0.07375590887426045,-0.5325859777971531,-0.49503364005217954,-0.15103541317038613,-0.1271192022319161,-0.47281559584757427,-0.5213315874485307,-0.3070170238310356,-0.2088165896457157,-0.7087974025955557,-0.4800236437246182,-0.34229939242755836,-0.2734137478022415,2
14.2,12.85,4.625,3.8,12.25,17.9,5.725,11.875,1002.0,880.0,307.0,238.0,823.0,1240.0,344.0,805.0,22.0,17.0,18.0,16.0,17.0,19.0,18.0,16.0,-0.4151686088018117,-0.12858755223365903,-0.1573245264741225,-0.2793210312684418,-0.5327736188539237,-0.18840509169217332,-0.37820721268423785,-0.26263032071140757,-0.469811891107241,-0.1281553016014207,-0.08548333724634506,0.014170102277069163,-0.48574866137696476,-0.32819105462816217,-0.10553134257727655,-0.107796631107687,-0.785611948249647,-0.6289253786597382,-0.4689698969615819,-0.29519463004996843,-0.48728370507962926,-0.3314159335235438,-0.42312864444855275,-0.050774036353182235,-0.27460413225326624,-0.3211712341776944,0.05432845208984503,-0.018753268941992706,-0.5099018620787421,-0.16378249273248338,-0.27960167975931877,-0.3602973628074934,2
16.2,15.825,4.8,3.8,16.525,26.275,6.75,12.65,1110.0,1069.0,255.0,202.0,1205.0,1880.0,452.0,884.0,23.0,15.0,13.0,17.0,23.0,17.0,17.0,21.0,-0.5596171231039873,-0.10064295179258688,-0.14859136868091855,-0.154103027490084,-0.42831593988233796,-0.23213525344379016,-0.4112813872461537,-0.24798502905636374,0.14047221029057008,-0.17832903134263092,0.04280974107371949,-0.3660289954214002,-0.061586426566209225,-0.4407437059790942,0.12080744057006755,-0.3415451261701513,-0.7870228086218227,-0.5857246886601563,-0.36592268913431664,-0.33697905294452524,-0.9323421952365964,-0.8051594700846056,-0.5258871057910428,-0.2646040463254004,-0.5951787386048064,-0.3864429426626708,-0.29308368672505697,-0.1899125767590301,-0.6174298484204869,-0.07143334154617784,-0.17879641820383327,-0.23739293004207834,2
12.225,16.175,6.575,3.525,11.75,22.85,6.075,10.525,701.0,1099.0,357.0,205.0,818.0,1600.0,347.0,704.0,16.0,15.0,12.0,13.0,21.0,19.0,12.0,18.0,-0.24164116265105515,-0.30076618664155397,-0.06736034042851086,-0.2301064978118532,-0.23832244230573563,0.1199360031044441,-0.13904757508725393,-0.2982038158895644,-0.12404134980135939,-0.011940157485588328,-0.23038859273348858,-0.3480919355937994,-0.16597933457950576,-0.4713397880781652,-0.05633549707660035,-0.4429705153564245,-0.6276303119230043,-0.28016034395145417,-0.06601785732116328,-0.12061502887683016,-0.7901703211649469,-0.512050229486938,-0.33272711620008905,-0.09766322467211486,-0.40451502501715925,-0.2939031981081883,-0.4890081817382702,-0.2749470026055436,-0.5256071758353795,-0.4444539272298824,-0.20929980731953188,-0.39302851167018676,2
13.95,11.55,4.775,2.725,15.2,19.4,4.875,10.175,849.0,727.0,320.0,150.0,1100.0,1279.0,328.0,680.0,18.0,14.0,14.0,9.0,22.0,14.0,16.0,21.0,-0.36930461830803896,-0.1475637730025661,-0.2513451980318387,-0.36150428154270337,-0.3430331028921251,-0.13027728712412462,-0.40629840009380747,-0.12980473545939902,-0.37065805471797725,-0.11390718537493233,-0.03391038239193574,-0.18399310220550844,0.07230116181873059,-0.34380507156170553,-0.07541625797545588,-0.28714164443770407,-0.8083971272250146,-0.4349196549186029,-0.10200503301726485,-0.17927469832330756,-0.2032957582175741,-0.48471946428578866,0.09340440056179956,-0.23409580942243058,-0.5213140264156504,-0.39043109885791105,-0.3842067196387982,-0.23515039895958348,-0.3484530719283292,-0.0649633564157385,0.10935240349294041,-0.2868849410131033,2
11.075,14.025,4.475,3.3,11.975,18.525,6.05,11.975,709.0,918.0,281.0,196.0,689.0,1047.0,372.0,785.0,17.0,19.0,15.0,15.0,13.0,13.0,14.0,18.0,-0.41656224658526897,-0.4388896020275231,-0.22167944421339505,-0.24871432821765285,-0.761687641566316,-0.6168476565279702,-0.5963641893506781,-0.24981141287914388,-0.3250823294452434,-0.26004831230010395,-0.19192506846016424,-0.1534496823541171,-0.12709398740800026,0.053867539949821214,0.00647685446552757,-0.10930073154768402,-0.31904991184992654,-0.11203633868620946,-0.26301942240522896,-0.44573288255221993,-0.09336302565136421,-0.15445775708890258,-0.1485314500854,-0.33337806011215854,-0.3243543821348216,-0.33429234102719213,-0.07624487696413193,-0.39115130103360973,-0.37130023950183166,-0.46765492856869634,0.10454232710496023,-0.26434795453431104,2
11.625,13.9,4.95,3.675,12.525,24.275,4.475,10.8,772.0,923.0,301.0,210.0,764.0,1306.0,233.0,705.0,19.0,19.0,17.0,14.0,16.0,15.0,14.0,22.0,-0.40361374012020357,-0.2754624128749735,-0.036280680106703926,-0.10907147507001654,-0.3660811368325318,-0.2748164808357874,0.188231116486591,-0.05770823642063257,-0.32814551186096724,-0.27205620709252737,-0.2052199108557297,-0.30602785564635515,-0.20713407944587814,-0.2218353921679446,-0.20150437448268602,-0.10956304950911287,-0.4186585158507118,-0.39099508962355184,-0.20110882271274663,-0.17067218821717206,-0.03415960382730972,-0.2852421468435432,-0.056252302246234544,-0.20890395140941903,-0.05727466567887975,-0.23083885087109654,-0.3159219719638018,0.055657868537469346,-0.4093364540735399,-0.3296605950521253,-0.25099813305253416,-0.20238682431015728,2
8.35,12.25,3.05,3.2,11.5,20.075,5.725,12.9,581.0,777.0,167.0,223.0,721.0,1237.0,313.0,848.0,19.0,19.0,15.0,21.0,18.0,17.0,15.0,20.0,-0.48337610799341985,-0.19913332518592977,0.14421827053279068,-0.037220600285886245,-0.40039476914718525,-0.43765930685010884,-0.37004995977958055,-0.39556626716721544,0.11513360569635797,-0.32129868679225626,-0.014344164538920592,-0.12196079131668579,-0.5231371196317566,-0.22387005022238726,-0.3292274728066598,-0.27460200149475367,-0.4534911464181778,-0.3895038420424587,-0.1950582814086776,-0.46261867302531123,-0.39021777764417953,-0.21814122563513888,-0.0211365939497494,-0.044882477858710745,-0.3553731833570418,-0.2391644262078583,-0.33831789792122696,-0.37110543967835136,-0.5607049852372296,-0.26991287846764606,-0.15208600155436425,-0.3464225837128895,2
9.675,13.8,4.225,3.65,14.075,19.725,6.4,12.125,680.0,906.0,264.0,271.0,957.0,1175.0,373.0,751.0,18.0,17.0,17.0,20.0,21.0,18.0,18.0,18.0,-0.5932290331917217,0.034032070578618574,0.3582782594767959,-0.0028963525200805047,-0.37805061645649574,-0.24981897087334115,-0.11053040525172181,-0.09345439317990843,-0.6078871265825824,-0.39985224360041016,-0.2773819532881953,-0.22832270820512618,-0.805398287474209,-0.28164778299932763,-0.3483073342900265,-0.2947074410394386,-0.5641082287164289,-0.06012485717152545,-0.19873771003229282,-0.3269512805860154,-0.18480692603936055,-0.27538192674656303,-0.10738166467726865,0.25839100488113126,-0.3118771900124966,-0.33668686302435125,-0.2101994980023796,-0.27100239766366047,-0.2643558196623665,-0.24474496958834363,0.047864718505737584,-0.3676763391967799,2
10.775,12.85,6.475,3.925,14.775,25.875,5.975,9.175,778.0,804.0,409.0,255.0,997.0,1749.0,342.0,580.0,23.0,16.0,17.0,15.0,20.0,23.0,14.0,18.0,-0.6017248531014927,-0.1332673140348587,-0.5352734687381243,-0.49202404621006174,-0.4886766122892313,-0.36735992566768977,-0.5788657157486314,-0.25130017970917073,-0.5233672767060258,-0.33821221811377405,-0.3940069747994253,-0.4468340625856797,-0.5180745897268116,-0.23117209404187622,-0.37508810532675074,-0.35206147182810776,-0.766324256148486,-0.56943712673725,-0.4431571567694632,-0.42894437611476577,-0.7241699887084804,-0.5579727921130484,-0.2463916895302046,-0.25131632646716084,-0.381430349381814,-0.5799521476983104,-0.23290296508794395,-0.4881713054178374,-0.2873134786911686,-0.16618529130258658,0.1465891455374127,-0.11203167990650055,2
7.15,11.925,5.525,4.125,14.6,28.5,4.85,10.575,516.0,876.0,336.0,245.0,1056.0,1887.0,293.0,700.0,15.0,22.0,15.0,13.0,24.0,17.0,17.0,17.0,-0.4546061930171136,-0.16748422015624934,-0.10011480365212334,-0.14804136048648653,-0.5148785113803673,-0.23184243119393766,-0.17925062196501762,-0.1371077285291139,-0.4294250746680397,-0.23131532169884503,-0.27128816310168236,-0.3134010367075027,-0.3835727069403434,-0.2279731855385797,-0.287027348681909,-0.18888294660664515,-0.7612933856131543,-0.46108949864268717,-0.2178331703032134,-0.38752449691410396,-0.6322895041481801,-0.4488162855029642,-0.43112125309581745,-0.45480792445408086,-0.15201966788136306,-0.19084341302760105,0.026257453679802995,-0.36149268304145493,-0.19458290895671537,-0.2543036451986199,0.08217769277364129,-0.27467737357757527,2
9.1,13.525,4.85,3.3,11.5,21.425,3.9,9.45,555.0,862.0,302.0,213.0,830.0,1437.0,247.0,580.0,18.0,16.0,12.0,18.0,20.0,17.0,20.0,19.0,-0.27447075643648716,-0.36066062532583565,-0.18357253479628174,-0.287469551063336,-0.4033941516186554,-0.410928065255844,-0.3590801350908968,0.036351001848122205,-0.4775346193363311,-0.3620810887808107,-0.2005546179136547,-0.14834400162854627,-0.37981864865277504,-0.41419623466170863,-0.5440002823291726,-0.21389279880420947,-0.7908927948710425,-0.48691017777628437,-0.4588271098261823,-0.14075309221797191,-0.6238449008946518,-0.38352985097344233,-0.3125379812066087,-0.037047515153307106,-0.3816410389069824,-0.04083963216839262,0.004237457084317525,-0.2656471218618131,-0.30707664752706887,-0.2420249150421434,-0.2106918551638094,-0.24022307061148868,2
11.325,15.125,4.125,3.7,9.625,21.65,5.075,7.75,688.0,868.0,273.0,202.0,622.0,1313.0,283.0,476.0,16.0,16.0,19.0,12.0,22.0,17.0,14.0,13.0,-0.2550354809513865,-0.4331189991475229,-0.10548139328660648,-0.16404012018650946,-0.2365868795429975,-0.37574072412121406,-0.21402761195739642,0.03192894837439751,-0.627447543365894,-0.3192915293588027,0.0014393810209304635,-0.045501961683851365,-0.2824207142462849,-0.2753395312933126,-0.5333808425876687,-0.07089404427044271,-0.6990665738019886,-0.504272957955626,-0.24103132773284555,-0.10812769512585439,-0.22315655757948544,-0.010574674896790112,-0.19121057002394504,-0.042738881701692794,-0.13983831601713054,-0.28561972479424996,-0.2479939360204128,-0.5947426787071937,-0.22361412532963687,-0.059522443118916864,-0.3674067522910438,-0.1420444828231232,2
13.975,13.125,3.7,3.6,9.375,20.825,6.0,10.825,1004.0,753.0,238.0,202.0,581.0,1173.0,342.0,683.0,19.0,18.0,15.0,16.0,18.0,17.0,12.0,18.0,-0.4212428805976787,-0.10930913379165783,-0.41991431782190425,-0.25941647705285403,-0.33135069295323666,-0.3194430875054358,-0.2484024274824529,-0.13562719277557134,-0.26810766227397587,-0.18768386462990078,-0.09071070050926783,-0.2566872594252344,-0.28546028848168753,-0.15208285356849466,-0.3900333630515623,-0.209398263253947,-0.26171512223389737,-0.21606109356570516,0.11692273751631828,-0.2438881596939039,-0.1888814492028482,-0.15365445526498997,0.14487514219699557,0.05693931253283782,-0.15028649867298366,-0.053615108005264325,0.016838473939373662,-0.15094044222992983,-0.15798754728045072,-0.3376932102995865,-0.07061841633990396,-0.2420678257937926,2
7.7,13.425,4.15,3.85,11.1,22.25,6.2,11.325,469.0,776.0,266.0,232.0,733.0,1413.0,376.0,685.0,16.0,20.0,18.0,15.0,18.0,18.0,17.0,18.0,-0.1875410804782699,-0.1875843694566317,-0.23841575731487644,-0.1586013680742584,-0.17785406808413412,-0.2970091928674481,-0.14679923387896793,-0.44740143554182565,-0.21968930586132326,0.03404482189472125,0.08759457250446531,-0.35215649855066117,-0.2458064303563106,-0.18501804910963213,-0.02960996486253188,-0.29847857629985647,-0.4454628697318721,-0.2574695504918409,-0.2884857087003129,-0.11956791859660865,-0.4084603742705409,-0.12712830695519248,0.06990290115583976,-0.18167552398349343,-0.46642280632049665,-0.19641381668860097,-0.3969717019855042,-0.4010279601446023,-0.33305275019801844,-0.3475037184400829,-0.22729780959453427,-0.050063363542072144,2
9.05,11.825,3.475,3.4,10.4,17.225,5.175,11.05,550.0,793.0,215.0,209.0,697.0,1192.0,316.0,651.0,14.0,19.0,17.0,16.0,19.0,17.0,20.0,16.0,-0.25827564646984696,-0.1882421771901213,-0.33478236946671486,-0.03552091699411339,-0.4709700136846981,-0.38303765432438397,-0.10177369671596558,-0.13909563628066665,-0.2717485304715544,-0.3147255200705537,0.07116138827309398,-0.23411987394206074,-0.49387190059115965,-0.263928591838629,-0.2917538057944307,-0.20269055470105593,-0.7285368426978892,-0.5322693597402459,-0.4877420076656054,-0.3368107515421525,-0.7278750091484444,-0.4582500183484548,-0.25580286840885175,-0.07350819225917263,-0.36794745528740214,-0.1485124753711312,-0.43958191830462745,-0.11598756940978493,-0.23335183331842876,-0.13109070783031326,0.09976237762996001,0.01470189108618004,2
10.925,14.975,3.8,3.825,10.4,16.325,5.5,11.575,659.0,751.0,231.0,205.0,709.0,981.0,338.0,719.0,17.0,12.0,18.0,14.0,21.0,15.0,11.0,21.0,-0.3008560947019824,-0.10190968515622514,-0.11356230063790551,-0.24569156329493744,0.13990929682599532,-0.2966759811753564,-0.05524167062507288,-0.28982773553649077,-0.38975549340399257,-0.1838080261556106,-0.31164504221909084,-0.1684992282309927,-0.4348150462831674,-0.6639843052117208,-0.5468206759511125,-0.35361313685430457,-0.5700190031249862,-0.3129995224171232,-0.11954418570594291,-0.13625165473744252,-0.43314188596082376,-0.21658192878211516,-0.18088976484959,-0.23067194403054347,-0.4566124970216526,-0.3953151251621615,-0.229370065580057,-0.09858527037139564,-0.47925549879884183,-0.28741109045320884,-0.32895799088840744,-0.2490938235137769,2
12.575,11.15,3.8,3.375,11.175,23.95,5.4,12.75,705.0,697.0,220.0,218.0,750.0,1489.0,336.0,836.0,14.0,19.0,15.0,16.0,18.0,19.0,18.0,15.0,-0.16285462741093998,-0.24319423638569063,-0.05124780979054852,-0.10037972975060917,-0.2481474251811817,0.040420657075086186,-0.05018186571948782,-0.2228149434991412,-0.3162410943504573,-0.14867415803718467,-0.1883089242572613,-0.11288685154187508,-0.5911302619104896,-0.44751827882557227,-0.47880327179220106,-0.25379633684760483,-0.5971554235560136,-0.4486186029418261,-0.2933955199788677,-0.248753064789876,-0.436503609872953,-0.5008840055952725,-0.15312309958023385,-0.25381618016989566,-0.40380313369218285,-0.19180527907733375,-0.4081465136904382,-0.10265411901466766,-0.4199843018239061,0.04364285333419505,-0.05894174202734738,-0.266564187047698,2
