0,1,2,3,4,5,6,7,8,9,10,11,12,13,14,15,16,17,18,19,20,21,22,23,24,25,26,27,28,29,30,31,32,33,34,35,36,37,38,39,40,41,42,43,44,45,46,47,48,49,50,51,52,53,54,55,Gesture
12.8,5.625,3.35,7.525,15.75,30.925,13.0,11.35,797.0,379.0,196.0,429.0,1062.0,1905.0,868.0,668.0,19.0,20.0,15.0,16.0,19.0,18.0,18.0,12.0,-0.4290376767233076,-0.17730894178430626,-0.2649517970971641,-0.08511838151170834,-0.5339720137387055,-0.08085115545088183,-0.05574736205455682,-0.3030623927317059,-0.3095904847769028,-0.3580977711801195,-0.32720180527803383,-0.15232472891454396,-0.07326561775483062,-0.4798465094199038,-0.28241010867357896,-0.15857111166221702,-0.5058616467732265,-0.1749807855192292,-0.2790740193327322,-0.14560964796910672,-0.15419766316276595,0.010396796093167205,-0.005467356568636589,0.13589581516763433,-0.6763058671187173,-0.6513666976369199,-0.33182997774683404,-0.2085125109662091,-0.1881445712569896,-0.3911913161746146,-0.18334910060908916,-0.2625179904460281,3
11.775,12.05,4.45,4.05,9.925,28.075,9.45,10.15,781.0,797.0,287.0,228.0,650.0,2123.0,682.0,559.0,18.0,16.0,16.0,14.0,17.0,27.0,22.0,17.0,-0.4853689274714664,-0.32107849853249315,0.050175521576952015,-0.08844358808722648,-0.6097179508068621,-0.4422368000485738,-0.3787587682857781,-0.10055174437247824,-0.28160904760873984,-0.005296173222556397,-0.11292964466161465,-0.21637240575314154,-0.050897900921320086,-0.4172692018783676,-0.14931589914035656,-0.3556406033391387,-0.4446931681731388,-0.17224714173325786,-0.24961056183280464,-0.15017108589352166,-0.9452782021193004,-0.33823081299940744,0.026485639431401628,0.1450999717113383,-0.8728809341529367,-0.4047380583027628,-0.3121416552948443,-0.14176864238740752,-0.2536839725205389,-0.2856366549807424,0.03700733593195106,-0.1851596837936277,2
16.05,8.225,4.025,12.15,12.55,32.525,12.975,19.7,1037.0,565.0,241.0,657.0,810.0,2020.0,865.0,1254.0,19.0,19.0,14.0,13.0,17.0,14.0,17.0,17.0,-0.4520431413375811,-0.3250934626828481,-0.2791295512500338,-0.3250904649509629,-0.6136248858425181,-0.274774720419897,-0.3357405893414812,-0.2848707002944498,-0.26213135323403364,-0.25031146968407103,-0.3738597185967646,-0.25459109899208404,-0.4264859547370631,-0.4425964252903371,-0.4364804175399601,-0.3580380760410232,-0.37564695339642296,-0.1190459772528699,-0.05839609733861239,-0.24816286923665165,-0.2789218646627234,-0.2099440317149464,-0.1997904297131674,0.009826021122226598,-0.5524801588572064,-0.41738754551371815,-0.14559463578383966,-0.009078185995774314,-0.44703012072876536,-0.3699996964289621,-0.3099606239883075,-0.24904412632027656,3
14.35,3.225,2.4,2.725,20.425,20.975,2.15,6.45,930.0,212.0,161.0,188.0,1410.0,1359.0,126.0,419.0,18.0,16.0,15.0,20.0,19.0,17.0,13.0,17.0,-0.3754495363519027,-0.20528887948933847,-0.16127149308733738,-0.26846010517125424,-0.5747406421658355,-0.4181022315474578,-0.3937431244416224,-0.3822980617022007,-0.7553303993216804,-0.4608102341910751,-0.6489434497221596,-0.3202385857318852,-0.8828518422290732,-0.3974481140651988,-0.42145668958585664,-0.2169374918620998,-0.576040971474871,-0.18752677979364493,-0.2781947348504314,-0.3497987515044505,-0.6794757620772001,-0.4080768551911886,-0.6768832253326258,-0.37280224375656185,-0.3485242934025653,-0.13300611569088566,-0.0951305761146488,-0.22687507523980274,-0.3480083190611245,0.012600409801788635,-0.2888405433493177,-0.5232172108394363,1
12.375,2.525,1.6,2.5,14.825,11.7,1.625,4.0,783.0,149.0,96.0,140.0,962.0,658.0,88.0,232.0,20.0,15.0,10.0,14.0,18.0,15.0,15.0,13.0,-0.4685705269762957,-0.5592800727215488,-0.1073178717943448,-0.3257881552785681,-0.2424520646501768,-0.2744394896967133,-0.110095183648479,-0.34901785202190944,-0.18669657718577268,-0.2873074744911924,-0.1479601538095417,-0.08719526540854149,-0.2341034033129112,-0.31763628437786484,-0.18232711763225173,-0.19867871686004568,-0.5045459692932939,-0.3557382983857165,-0.0016505523256120163,-0.18610605740857844,-0.22707335531085726,-0.3620413290143791,-0.07803756212394332,-0.2095454223589712,-0.18449429373642015,-0.2854292179949668,-0.2404787683943009,-0.1867153421135468,-0.06127161695313695,-0.24375254755097656,-0.1106327914864998,-0.2391823648795875,1
11.675,13.525,3.95,3.5,13.2,23.775,6.7,12.925,819.0,843.0,259.0,249.0,889.0,1353.0,441.0,848.0,19.0,17.0,12.0,15.0,16.0,18.0,20.0,19.0,-0.5304482938765103,-0.18145202679007105,0.05307683961104443,0.17675216654755185,-0.35915213806865737,-0.4448277030499104,0.002366670747795383,-0.1962325986366283,-0.445651889761573,-0.24328895337422946,-0.16602897718972134,-0.280927419901633,-0.6362501711811034,-0.3138433424819201,-0.2127493041448295,-0.009809086392215486,-0.3025314299002594,-0.1722643190336087,-0.2214790642788384,-0.034175557490672616,-0.1870013622722749,-0.19226632581040146,-0.3414762403469211,0.10803547868020397,-0.5258088161285216,-0.13995617040029013,-0.17219024946994818,0.00492075037184298,-0.3700956420649669,-0.08117832242462421,-0.1290999576404181,-0.22352972439154825,2
7.3,11.075,3.35,3.125,6.9,13.975,3.325,7.125,472.0,682.0,177.0,172.0,482.0,773.0,215.0,396.0,17.0,16.0,13.0,16.0,17.0,16.0,20.0,15.0,-0.5576604166959546,-0.31273454946619833,-0.5314342102397335,-0.5282187658642074,-0.27992384770848644,-0.21713165436287515,-0.0409392682474683,0.031017977745828644,0.14997268094334398,-0.26045016240897184,0.16378987791662195,-0.07923829280272134,-0.06340608957629412,-0.05191077069406856,-0.11725645241472032,-0.04244589408155837,-0.5358187980289381,-0.07722381808854603,0.062263940230542776,0.03300549103927845,-0.1283696719505146,-0.23316217736134015,-0.08574410611711063,-0.20109447695945115,-0.2410348977414384,0.035862665836952315,-0.13464380109381022,-0.08094508469882887,-0.11474493253899283,-0.15472954370853018,-0.2044631780487029,-0.2496102150280639,2
16.55,2.6,2.55,4.6,17.3,13.975,2.375,6.75,994.0,171.0,158.0,287.0,981.0,915.0,148.0,394.0,15.0,15.0,18.0,18.0,10.0,13.0,14.0,16.0,-0.26858706671256594,-0.13072025338947385,-0.15369451607097892,-0.13080615597884984,-0.4859965499962994,-0.3151927404602735,-0.5030088396540688,-0.2983042788567559,-0.4873732316185504,-0.2832949555765581,-0.5330258384027088,-0.3608385149847483,-0.4672751527642306,-0.1970436471523453,-0.6373889805523283,-0.5385083568102266,-0.2378124275603787,0.00479354136317953,-0.10701045851117487,-0.21830161849793286,-0.5135502262648654,-0.4011628183576893,-0.6408629241109375,-0.5222180141952457,-0.6702807091220265,-0.4080158384588656,-0.23099833338006065,-0.20113541296257312,-0.3255721689913154,-0.4157900239957377,-0.19227469475116413,-0.07185457533262703,1
6.35,2.65,2.45,2.675,12.65,22.775,6.275,5.75,429.0,167.0,151.0,160.0,840.0,1509.0,351.0,388.0,19.0,19.0,16.0,12.0,19.0,19.0,13.0,15.0,-0.4651154185224149,-0.29383288045770817,-0.12739584033987358,-0.26361962832581104,-0.5319953740353138,-0.3631450400433837,-0.029250800365922324,-0.12333963409789367,-0.4439981006849356,-0.3046580202185108,-0.35356453752060946,-0.4470275273267661,-0.4289064292433713,-0.33880188321022586,-0.34493395726233034,-0.3691695530995127,-0.6574710180546592,-0.4568434370072959,-0.3002996100534085,-0.3622083731836188,-0.2654305091430554,-0.09475261253196332,-0.16397506096883582,-0.14574995398983195,-0.2509251774492797,-0.32844580678089685,-0.18827957818577887,-0.1464279228999461,-0.5879382119361323,-0.5814006743736264,-0.32318083553395044,-0.35644247055329953,3
6.45,4.65,2.275,2.825,12.9,14.775,2.225,9.375,377.0,271.0,128.0,178.0,792.0,956.0,130.0,649.0,17.0,16.0,14.0,17.0,18.0,16.0,15.0,20.0,-0.15289979862747785,-0.361700375871806,-0.02564356297794924,-0.32919794915427353,-0.4032387135557784,-0.4978100067034768,-0.2364414211048743,-0.21040550879166844,-0.12568601787644318,-0.2716245172324985,-0.1777796564944773,-0.3128647774450536,-0.3475494783769062,-0.14632771322152036,0.07902455299954178,-0.26191849242048465,-0.4742464850333847,-0.4536918264837002,-0.21152370244778146,-0.3704104344165115,-0.4220997786400403,-0.5774459771558981,-0.2349026099409688,-0.3528824213084352,-0.14557363936805134,-0.11282047410559636,-0.2464354457378285,0.004871269590432775,-0.4633300772897575,-0.057524265478420135,-0.3266490921367462,-0.2699040117929016,2
38.7,17.025,9.175,13.325,16.175,28.275,74.225,42.4,2267.0,1070.0,593.0,795.0,1000.0,1778.0,4803.0,2569.0,16.0,16.0,17.0,17.0,18.0,19.0,20.0,19.0,-0.3397020109343864,-0.3837112657749137,-0.2624417340480081,-0.13855695086236428,-0.7320748208891583,-0.7073163038131861,-0.5067282239362895,-0.3708964826295909,-0.5477821423878219,-0.578397876895011,-0.18605280644787728,-0.1266761598532127,-0.3226798153121685,-0.5456193360943016,-0.2687582273794554,-0.4166633804159422,-0.5188002360643893,-0.5470661401775546,-0.3764036423368927,0.0074274507100618985,-0.5707652098642326,-0.6140944862403539,-0.39543515097922416,-0.07990266052274693,-0.3639813368356406,0.016176544922573644,-0.07201644163351309,-0.10206800868972007,-0.4603016082949688,-0.19807242204692027,-0.17493989607312874,-0.15602625790112595,0
9.975,7.15,2.9,3.025,10.3,13.15,3.075,9.5,711.0,486.0,145.0,140.0,705.0,778.0,178.0,587.0,19.0,19.0,13.0,11.0,17.0,17.0,14.0,17.0,-0.6077912045735789,0.21668186213105786,0.1639574122736719,-0.13235584831916805,-0.6151831894561203,-0.3455967562976728,-0.0009338904191792333,0.08957835827869408,-0.05200965470479743,-0.11559403397209048,-0.007980725117346524,-0.14766248560317954,-0.05442811077087064,-0.0456184438437251,0.0008420198123722936,-0.11905059425278057,-0.7124419822579089,-0.40081139728559373,-0.4883799751548231,-0.386216647323692,-0.4402973265389714,-0.23411240515213397,-0.026118726746995755,-0.03490783746958129,-0.1994180747674156,-0.0006233327332334352,-0.1294696929266539,-0.3583136870727763,-0.2135700034690995,-0.0956890110552545,-0.15417601384513327,-0.19799586155758594,2
29.425,4.6,3.2,7.775,16.95,33.5,66.5,41.35,1841.0,287.0,190.0,468.0,920.0,1728.0,3398.0,2573.0,15.0,15.0,12.0,18.0,14.0,13.0,11.0,17.0,-0.6628071988780243,-0.4130212736889468,-0.5390478191162185,-0.48215557402361997,-0.41057507509996377,-0.3924635546895806,-0.2255547757556265,-0.11757565811947238,-0.3643565493337558,-0.3127578289310464,0.06153154363006363,0.013567721307731656,-0.5560401680772241,-0.5473543816587098,-0.3336430141827165,-0.2330762721340505,-0.3847290415460913,-0.5737240289307052,-0.4501431683201872,-0.4810033469513664,-0.2780838415013944,-0.5147837172360537,-0.43033161541194304,-0.4606145745363959,-0.0919837538285346,-0.20864984229112246,-0.1446633262411779,-0.2244140711154821,-0.5103514646336811,-0.4248715045846631,-0.3731637986516021,-0.309459968576296,0
3.975,1.925,2.275,2.675,16.825,18.625,4.95,4.175,256.0,123.0,147.0,148.0,1018.0,1088.0,273.0,266.0,17.0,13.0,20.0,14.0,19.0,15.0,13.0,15.0,-0.4064921037900947,-0.3780068675956037,-0.3069716323256896,-0.116036385159244,-0.29097783465393545,-0.3004979877533172,-0.03130169201501614,-0.2190546530408978,-0.4394437066699824,-0.2569039065271817,-0.13640413601902884,-0.22538227156432225,-0.26003585494683346,-0.3630839041544026,-0.18378528214831108,-0.4134585832636302,-0.2536258910737234,-0.13074038569534094,-0.04747564008221646,-0.2449259598503872,-0.05957953487635049,-0.25664701327416484,-0.0963101347818189,-0.4559037126481258,-0.223241385800513,-0.3158395524611424,-0.2043975634310067,-0.6141092312207713,-0.3427523994674093,-0.2276765132818201,-0.23597663574723374,-0.1961742359991476,3
21.35,4.675,4.65,8.25,14.225,20.875,76.825,29.9,1462.0,280.0,289.0,486.0,804.0,1014.0,4304.0,1666.0,20.0,14.0,17.0,16.0,14.0,12.0,14.0,15.0,-0.542824374693161,-0.29878397398030965,-0.2974354577454081,-0.5530260911366501,-0.2565158486093014,-0.12577956128601545,-0.043406049639934566,-0.08234452626772372,-0.1924854510575344,-0.4340365811574313,-0.26543817379659024,-0.13044716827435185,-0.4549806978876842,-0.4685339393134316,-0.43768879948214295,-0.6193341628278713,-0.26702755349256474,-0.2899976531632543,-0.33312434157362897,-0.34397807684598186,0.06941038294696132,-0.2928305280728273,-0.2481249557478895,-0.411541322230191,-0.2600491828164945,0.04846076604972925,-0.1656631720720364,-0.08725990935321186,-0.16870033699784726,-0.33552441826920304,-0.22202767839404672,-0.6202909687254371,0
7.375,12.3,3.475,3.175,12.05,14.4,2.675,6.6,449.0,748.0,215.0,172.0,764.0,871.0,160.0,445.0,20.0,15.0,16.0,16.0,20.0,17.0,11.0,17.0,-0.4376126801095515,-0.1342371892915549,0.04654232497734158,-0.11208727969893977,-0.16732191341039376,-0.012998345350273548,-0.1758705343709078,0.13123864621757927,-0.3551487582952598,0.11471048812830956,-0.10519805353394038,-0.2632095924538378,-0.25443494131123146,-0.058662765470006026,-0.02594897744626774,0.14823991905868528,-0.5674827396620853,-0.3998865850974965,-0.2947348927541217,-0.15456415569300186,-0.2942686532277966,-0.13853859168288585,-0.04995852062910849,0.012120342001911592,-0.28224510808416586,-0.5576335386569676,-0.3344751995883342,-0.4687344301535628,-0.7303117411783729,-0.4986890202641386,-0.3450334480180398,-0.3285810287959544,2
8.675,9.9,4.4,4.75,13.925,21.3,6.65,10.075,611.0,531.0,256.0,280.0,895.0,1322.0,392.0,590.0,22.0,16.0,16.0,15.0,20.0,18.0,14.0,15.0,-0.5482043799898075,-0.2529070724154344,-0.4060070913337703,-0.4301128166870674,0.12816678089001982,-0.5987601325852443,0.07780899480149098,-0.4827016047470764,-0.17754006909601136,-0.061669410814497186,-0.01931391158066108,-0.06779227343016762,-0.2534445955990869,0.2567529159594697,-0.21139274553594792,-0.4120111843697701,-0.5949935944959432,-0.24105963781967715,-0.007359650108052536,-0.01421288523570996,-0.3938270845000367,-0.1102584887797791,0.10131655084080707,-0.10061464144051728,-0.37992641778480296,-0.4255057350452032,-0.15809273952124114,-0.3478474460205204,-0.3793584778978992,-0.5450404890432969,-0.280202766149281,-0.2283937098747733,2
13.0,4.15,2.7,2.2,24.6,23.15,2.95,6.75,864.0,280.0,184.0,133.0,1645.0,1570.0,190.0,483.0,16.0,20.0,20.0,12.0,20.0,20.0,15.0,21.0,-0.3366713807188542,-0.3448498166437725,-0.26647782708725776,-0.13926183820400673,-0.5518850483792195,-0.4922637149073583,-0.2341875577702395,-0.3600210406198735,-0.4531914652238201,-0.06119940215578836,-0.036303010259339685,-0.2386017096756589,-0.12275183999489928,-0.11467481524276095,0.05890761642049379,-0.1204404970231073,-0.7902348292656328,-0.6707247658035754,-0.37828176634252336,-0.22370847947328676,-0.5504288989017334,-0.3428909508074117,-0.4117449945410256,-0.24117174371768066,-0.2732727076454186,0.1960216068994155,-0.07740048151396968,-0.2739153983919203,-0.4483226445688309,-0.2448514257610943,-0.15403065317323048,-0.35407790674451894,1
11.95,11.425,5.35,7.8,12.6,16.125,24.35,13.4,839.0,773.0,335.0,516.0,866.0,1028.0,1588.0,854.0,18.0,20.0,20.0,17.0,18.0,20.0,19.0,21.0,-0.6433904288603167,-0.474176729564926,-0.2332154776125221,-0.0101870932840518,-0.6408469074643431,-0.4568074636139204,-0.1449170703779259,-0.2465895580707273,-0.2980829236966799,-0.005214974622173696,-0.04154402694539502,-0.3188482514868484,-0.6112232024246229,-0.5513415963689543,-0.3101472394985531,-0.3475062702841953,-0.8253970733143579,-0.5714423909536193,-0.15136287741491553,0.030150322679570293,-0.4375409541413749,-0.32010094605612704,-0.018757066186581624,-0.06743217789663968,-0.5136454792618342,-0.2359105384758603,-0.2611353937550035,-0.12032989944356158,-0.6789529456312872,-0.3974876767417904,-0.2902210948393896,-0.21576569775880175,0
7.55,7.85,5.175,7.025,7.0,8.6,25.775,10.0,464.0,474.0,334.0,446.0,512.0,472.0,1639.0,564.0,17.0,17.0,18.0,15.0,20.0,15.0,16.0,12.0,-0.4231959749418489,-0.27322483663267644,-0.3691563111702329,-0.2798550808885443,-0.3806966787308108,-0.2944252049144324,-0.4139982214583525,-0.416797136293231,-0.6376510539172024,-0.6194646234877484,-0.5851623217070441,-0.4911264617812102,-0.4356954275099785,-0.560863824775521,-0.400167571370558,-0.5578169970426596,-0.6504198956791052,-0.3787453557571121,-0.08943744071618627,-0.002315288498714961,-0.18077905393144555,-0.5120743986462114,-0.1596437756556785,-0.37077059234881293,-0.4692396832989244,-0.42213435755205336,-0.3711069158353593,-0.3486813894808345,-0.2405346600881644,-0.22406139829433208,-0.22301778903029326,-0.3746233937316496,0
4.85,2.075,2.1,2.675,15.5,25.15,5.3,6.05,320.0,113.0,108.0,176.0,1033.0,1729.0,340.0,357.0,19.0,11.0,14.0,12.0,18.0,18.0,18.0,14.0,-0.35105951894566306,-0.008589818233191571,-0.10766782504305553,-0.06783114300902322,0.015223063112489357,0.057160186980606,0.023772351919559963,-0.4546905823936706,-0.05587150998948938,-0.1363069441381243,-0.12019647451838482,-0.3817082928572727,-0.5705767918995817,-0.2684008477219652,-0.2961790511579884,-0.2997165752741125,-0.6900936827181954,-0.542462690557547,-0.0935775195689989,-0.2369916250812084,-0.9385970187825572,-0.8399291505768799,-0.4391670290905165,-0.2699445767474781,-0.4817386857597006,-0.3339944140985166,-0.22106678486935968,-0.3970662025821292,-0.3571136502686325,-0.19970078764526356,-0.12736795184640348,0.036966089652754164,3
11.7,5.65,2.375,2.725,18.225,19.075,1.6,7.0,783.0,272.0,148.0,151.0,1108.0,1175.0,98.0,482.0,17.0,12.0,14.0,18.0,15.0,16.0,13.0,20.0,-0.5968211017515417,-0.4227437411667503,-0.36092709599499934,-0.07653068115970682,0.1829689014966226,0.03609682753531608,-0.07451036538064162,-0.2335462283905868,-0.450529810331409,-0.510728380488077,-0.13040411293975324,-0.3138052060082023,-0.4205491063700907,-0.655753716701485,-0.3772639711651004,-0.4968989201097565,-0.4763164226767408,-0.6157355551034144,-0.4360699643926142,-0.5779650530969614,-0.4288047854241139,-0.6517019754888362,-0.3341338149233386,-0.5211461494783207,-0.28839692538273065,0.021960384676232552,0.13132596671337182,-0.04540749823969268,-0.4596950067156693,0.031139274220940226,-0.32897603663609803,-0.3367672311564765,1
11.0,6.4,3.725,10.6,9.925,31.575,15.7,17.325,720.0,424.0,233.0,712.0,595.0,1884.0,1084.0,1212.0,19.0,17.0,17.0,21.0,14.0,17.0,21.0,23.0,-0.5313220803057173,-0.2660983640981268,-0.44508037082905305,-0.0878085484758145,-0.4961042001974426,-0.4185943489886206,-0.4427366023274805,-0.28578102201337563,-0.5913520097454913,-0.6575195529883576,-0.414576002176662,-0.28427099418708546,-0.634849844397407,-0.3840730359394061,-0.10060925275327624,-0.14551691588205254,-0.2966620033185541,-0.3603242595772542,-0.24414203717468466,-0.16610177995432185,-0.3574590041746276,-0.267686808236796,-0.2972224589705828,-0.165694432875556,-0.8749225079223909,-0.3553182742765527,0.2421916614764344,0.1920283676322355,-0.4003639141292539,-0.09802788381346283,0.11182604725989924,-0.06871677855317201,3
18.65,21.35,7.1,6.65,9.05,13.675,30.5,14.525,1379.0,1299.0,409.0,435.0,570.0,953.0,2009.0,996.0,19.0,15.0,15.0,14.0,17.0,17.0,18.0,20.0,-0.7833109929727088,-0.5521401080762147,-0.22841257037811935,-0.12268690537944052,-0.1325675549281663,-0.11110065852463057,-0.11804214401866045,-0.3143470007545842,-0.425201510607864,-0.4526268500053011,-0.2844510099132943,-0.2613280140068393,-0.3964078561279151,-0.2382862912091601,-0.5169165806417261,-0.0069237032549886645,-0.8088620032712053,-0.6617781004759744,-0.6871382611437845,-0.2926275362414533,-0.7174207912750807,-0.3993197729005331,-0.2270275743405875,-0.2562700294626901,-0.7430981016566458,-0.4130427967011643,-0.314351450421552,-0.30000735158784525,-0.649673340621417,-0.3883741368169576,-0.2794346995344245,-0.21871401087863185,0
4.35,2.0,1.8,2.2,14.6,20.825,4.65,8.075,250.0,114.0,105.0,119.0,997.0,1191.0,287.0,554.0,11.0,16.0,13.0,13.0,20.0,15.0,17.0,19.0,-0.3798956436468874,-0.4022350917406803,-0.3545154945028521,-0.4435294694645997,-0.2811814198078431,-0.2132071435298656,-0.03458087308868898,-0.32330450283706874,-0.029500157551551043,-0.20541645790500934,-0.06601244132537698,-0.33371067266573823,-0.192489706000696,-0.2418324376934181,-0.16186465871447914,-0.39410299261580295,-0.733313778530285,-0.3691370990856867,-0.30626602587742985,-0.3587100045553265,-0.20515821171475784,-0.10400973703022302,0.06452750832371354,-0.2084157336414692,-0.20834606196921324,0.06553644860250754,-0.047051558911236434,-0.20100360010133286,-0.693252004108239,-0.32991323027058955,0.07907923963158371,0.15651093736939695,3
8.4,2.925,2.525,3.15,18.3,19.35,2.2,7.25,447.0,180.0,142.0,173.0,1128.0,1181.0,149.0,516.0,15.0,17.0,13.0,17.0,20.0,17.0,18.0,16.0,-0.06923631737883741,-0.28391401404399713,-0.14180731450669148,-0.17907580215925134,-0.43215179825006894,-0.4424798058458756,-0.3629126226074312,-0.277355984400742,-0.10411154458920037,-0.2846860917431576,-0.0029548066637071746,-0.2964295146557473,-0.18617096893562946,-0.4083841801323424,-0.14927308507003526,-0.16361897169615053,-0.5778154255556087,-0.5524419054452334,-0.43086728057605,-0.29078681895122616,-0.4008944870385653,-0.6260831065436762,-0.30799624203355924,-0.1905379528383152,-0.20228102715051705,0.006466459070033787,0.08094198576903001,-0.5718535719489654,-0.6065576880118855,-0.3154429975971297,-0.2561940347035424,-0.38706307750165664,1
4.15,2.25,2.55,2.6,11.2,23.075,6.2,6.225,284.0,130.0,155.0,157.0,746.0,1477.0,400.0,389.0,18.0,15.0,15.0,16.0,21.0,18.0,19.0,16.0,-0.2227684101202205,0.007578593427093093,-0.156504064258544,-0.4182404377415917,-0.3464991470920618,-0.3896073262119175,-0.1975812340148588,-0.2958649258906009,-0.4215618616208939,-0.3982771270553428,-0.40988243631131777,-0.2645703774012257,-0.2971089200263026,-0.4184006345978974,-0.1182887365858396,-0.3216426283128783,-0.6040883104377206,-0.3162924382049472,-0.2694723356048616,-0.11954788305677315,-0.5234094995580638,-0.2401558087001204,-0.1767779912234327,-0.1738886648227369,-0.4984356006682738,-0.0940767665814836,-0.035125813157554475,-0.3122934251517006,-0.30392464672969544,0.06583435702875227,0.3550740107956857,-0.03598220722443448,3
9.7,17.1,6.1,5.025,19.0,25.55,3.1,7.775,731.0,1154.0,409.0,307.0,1253.0,1780.0,188.0,475.0,22.0,18.0,18.0,17.0,21.0,23.0,16.0,18.0,-0.7275001303158404,-0.17760943798553985,0.04497596891682416,-0.21001520412932992,-0.5470393051817519,-0.22545196788950195,-0.1377443357455175,-0.11667778665154167,-0.4427546158567642,0.05077574527651309,-0.020322929872969332,-0.006608220505314217,-0.3357107276120549,-0.13365746108321042,-0.11963066778385985,-0.12510782284487695,-0.7568323629070433,-0.4475960623338432,-0.1746277493938779,-0.10913230832826354,-0.708132319258274,-0.3586996334432472,-0.4582558184967295,-0.29707612675120365,-0.38229939897731,-0.046061311819471235,0.03977196934562992,0.03242911944297552,-0.5929800724745133,-0.607201392088689,-0.4096268372707099,-0.26851602232621113,2
12.55,11.875,4.0,5.4,11.575,17.55,6.7,10.575,898.0,796.0,252.0,323.0,717.0,1175.0,402.0,722.0,21.0,13.0,15.0,15.0,17.0,22.0,13.0,20.0,-0.3788766197847931,-0.09695938149038846,-0.15162519524673065,-0.08018697579193672,-0.3802759059940303,-0.2213092426531992,-0.21387782022881666,-0.31298298385287604,-0.4553964591810705,-0.015784355825199492,0.07429639717510346,-0.11417406765323493,-0.3275848838247842,-0.1361203896145707,-0.2517373314118677,-0.22983769297588705,-0.567219825020673,-0.466496804954594,-0.3011280310245808,-0.36703914232097545,-0.4653379831823724,-0.29200786696213515,-0.28248081085376925,-0.5083290051737421,-0.23930958821709236,-0.2372319580252952,-0.22018056504204506,-0.3602454425164325,-0.19905568889838285,-0.04159838591463411,0.3484185219304004,-0.3201593208343806,2
15.75,3.45,1.9,2.675,20.075,17.875,2.15,8.075,1079.0,228.0,99.0,141.0,1287.0,1208.0,131.0,479.0,20.0,17.0,10.0,15.0,17.0,17.0,12.0,13.0,-0.3608776902333509,-0.041575740614025636,0.2140157214298173,0.17379914287646372,-0.5362962600349341,-0.049811563020424984,-0.17635484552364136,-0.3263456888088741,-0.0983978729717464,-0.4218610839123659,-0.06721828254204636,-0.22076647533836136,-0.003474526301536972,-0.3043878811032046,-0.15412172220567855,-0.0943724150220987,-0.7602895709230416,-0.5883123026164069,-0.3100853044364009,-0.2976555351438525,-0.6797016403385678,-0.5219023764311139,-0.3788297539116472,-0.26817375366509755,-0.3476207332618817,-0.25206889396420923,-0.35058304309332233,-0.3283096764434693,-0.4694544854957022,-0.4385875287072698,-0.342319139333552,-0.5078643535237397,1
24.825,4.875,3.025,7.95,7.0,16.6,37.15,15.425,1700.0,302.0,187.0,512.0,455.0,1077.0,2459.0,839.0,19.0,21.0,14.0,14.0,18.0,20.0,18.0,18.0,-0.7469850613336732,-0.6214569956298721,-0.5332424607901084,-0.44486355809181655,-0.4768087802374718,-0.2505327371616801,-0.0851615986042495,-0.1937723133955956,-0.3631408314417526,-0.36122224351952975,-0.1783235822453326,-0.3711649021879501,-0.3990128249404787,-0.4561791870215833,-0.2592023314896342,-0.3178098226687581,-0.4733068480056161,-0.4221047259216241,-0.3850728805791115,-0.460553349928728,-0.4886509345634174,-0.4512717849456437,0.04387801176035954,-0.20980633575922925,-0.5860176037993907,-0.2789281390645502,-0.4525516976321375,-0.4816749210938399,-0.16559694273084175,-0.20210218317407874,-0.18476175526169564,-0.22628359922015076,0
4.225,1.875,2.4,3.175,9.375,22.025,4.975,5.625,262.0,118.0,128.0,203.0,639.0,1492.0,317.0,324.0,16.0,14.0,12.0,18.0,17.0,19.0,18.0,11.0,-0.3494671134375881,-0.22306676496031394,-0.37613853407992376,-0.34545287548824377,-0.21889048099491304,-0.1019106548486333,-0.12256974253969495,-0.1929637831204757,-0.2352523751131044,-0.11256241829610697,-0.2111885104486492,-0.15159958958700956,-0.4109730913946577,-0.21240327215163912,-0.05428759858214379,-0.05664346593623636,-0.5140879637418865,-0.13159871869510772,0.051546734908167566,-0.10647517959936356,-0.5085122001525393,-0.08889206869097571,-0.23943672130509314,-0.3384684666566831,-0.6721359821989693,-0.4353430898500942,-0.3937535460782081,-0.17828077715231205,-0.3269433230965337,-0.2738876926457937,-0.32309725175808673,-0.41473308373461865,3
12.625,2.65,1.9,2.275,17.0,11.85,2.3,5.25,848.0,128.0,103.0,144.0,1071.0,656.0,124.0,327.0,21.0,11.0,15.0,15.0,18.0,13.0,8.0,19.0,-0.3166784625051321,-0.07749590806415238,-0.4062604932192216,-0.06648931173722858,-0.008138829098567831,-0.24113942549695006,-0.2795263814619475,-0.05207395199143173,-0.10604534185519288,0.08506882671462594,-0.09812336258670096,0.16064930780692047,-0.4172871154770601,-0.2426807108678289,-0.29432377476097343,-0.07054010742473364,-0.4423399286671544,-0.4008929052156943,-0.0955715512172826,-0.22961753673318466,-0.27818815460611085,-0.17252369144163526,-0.3847908451865549,-0.2592958129795366,0.13389232956035668,0.3166987611135538,-0.03990351738656587,-0.5558996803175654,-0.2983147248049066,0.05909423671743831,0.04821378327805805,-0.05837879564029275,1
14.025,2.8,2.5,5.025,9.725,11.2,26.9,11.3,949.0,171.0,159.0,271.0,701.0,685.0,1746.0,742.0,21.0,15.0,13.0,15.0,23.0,12.0,18.0,20.0,-0.7467044392283014,-0.5554536297134051,-0.6202937400826956,-0.4936670218952945,-0.3226380647021806,0.1380431706529979,-0.2642304253274897,-0.4333752764370065,-0.4665826684355565,-0.2109490998470862,-0.4633576405858753,-0.3275616935352588,-0.2459042488899032,-0.2527553545450306,-0.4011054831313543,-0.22437579894926088,-0.7226778630051379,-0.2581388098114298,0.04668521842076656,-0.16152029289853198,-0.17069053982954202,-0.302343758808843,-0.24777702606928845,-0.1907044961300529,-0.4023419528948288,-0.3455259733194264,-0.33938461056423425,-0.4653240559133461,-0.7993841524156389,-0.7172231931553589,-0.2973307905701417,-0.2761365438348921,0
10.625,17.85,3.275,5.3,19.675,19.05,5.375,6.2,661.0,1224.0,196.0,300.0,1274.0,1129.0,339.0,423.0,18.0,18.0,11.0,14.0,17.0,17.0,21.0,19.0,-0.36164217362206297,-0.3155859452864795,-0.24717877595569,-0.1098302847175358,-0.4630359554188586,0.0353710904344568,-0.16055928255466229,-0.29475387387470914,-0.2416487571528901,-0.013783226068133996,-0.031896420048413976,0.15432410906013505,-0.21067637961401267,-0.36972904936218215,-0.1494747686484864,-0.34976224359323044,-0.2473324522428918,0.001216365443557466,-0.1681456061069701,-0.32501510055304184,-0.19792984638637692,-0.23200256454582735,-0.20494430984176315,-0.3295703739331997,-0.4771250734245353,-0.2553712943706535,-0.2177465894061408,-0.12040789679153152,-0.3370275734273038,-0.14482981280265675,-0.21824218796528774,0.024888586753442684,2
14.0,10.05,4.875,3.775,6.975,7.025,22.7,11.825,973.0,670.0,337.0,242.0,474.0,421.0,1406.0,811.0,16.0,17.0,20.0,18.0,20.0,15.0,16.0,20.0,-0.9026693264551412,-0.8351723009408712,-0.5754626887955621,-0.2634113731333755,-0.5196042202353587,-0.23061870352417155,-0.2011343565765737,-0.2034278820774871,-0.6116717159905491,-0.18617619956849232,-0.21841884595797206,-0.0792869994947177,-0.31368138791237565,0.054661164879298535,-0.2295544832436819,-0.20623718925747844,-0.7855809189383026,-0.3775963639025598,-0.23418592275143546,-0.2640695057905925,-0.14080400875444687,-0.19284283777586944,-0.13187850683127808,-0.004504013458598345,-0.5846138179283001,-0.4342571757282641,-0.29186044737708433,-0.35684677926745795,-0.7670276502588812,-0.5366975214694029,-0.2727316190418114,-0.24979224297938346,0
12.95,1.975,2.125,4.225,7.625,9.3,25.025,13.75,907.0,115.0,133.0,292.0,528.0,665.0,1622.0,887.0,21.0,10.0,17.0,20.0,24.0,22.0,17.0,15.0,-0.8514688460039341,-0.7392356464504771,-0.4260749186273456,-0.3307680423492441,-0.3668636185624968,-0.4608946176023956,-0.0700789303531927,-0.1837366747036788,-0.4751598486479517,-0.3841851823672921,-0.2643564829219428,-0.25780101757764945,-0.4156054820486784,-0.04254581975245426,-0.052733951973567686,-0.08627348941594133,-0.7475293693554598,-0.5579901347466929,-0.2716758909546498,-0.3598101745228615,-0.5415701816057857,-0.1951202486917236,-0.09471264401399934,-0.24451829715847825,-0.5612901593094118,-0.6234322603009087,-0.5423917485664822,-0.4828820429772026,-0.4572309430203796,-0.19218266341449192,-0.16915743620737886,-0.14656136694593655,0
23.65,8.25,4.75,8.55,7.5,13.325,36.45,14.925,1660.0,541.0,290.0,547.0,473.0,718.0,2353.0,1075.0,16.0,20.0,16.0,14.0,18.0,16.0,20.0,20.0,-0.7058209843789152,-0.3575356714617308,-0.04075332961877697,-0.12717703682349954,-0.5097670993981361,-0.1326761172839492,-0.3587329691593626,-0.2422694782089619,-0.4179189708648192,-0.5234337723091324,-0.43265307298077005,-0.26094327221964725,-0.4520198647486147,-0.491706425802235,-0.32983284283444225,-0.1322109409259163,-0.16369596060818,-0.03885613077641351,-0.29596045791370984,0.18288911212333955,-0.007109031206708583,-0.01105206114970463,-0.29833227109695426,0.05957621899280765,-0.6821500408608587,-0.4235922982481999,-0.4273325001290532,-0.33976062211769065,-0.6486689027505739,-0.4227352358372541,-0.3684268842677357,-0.4218457181550617,0
10.725,12.275,4.175,4.1,11.15,14.35,2.875,8.9,718.0,824.0,243.0,219.0,731.0,800.0,157.0,572.0,21.0,19.0,11.0,10.0,19.0,13.0,12.0,19.0,-0.2932676862013835,0.10402597149119087,-0.2216877981129141,-0.3183577686303989,-0.3951715866391299,-0.26255646197593463,-0.12794418633301294,-0.3910134128061182,-0.12595690852051405,-0.29603416641316616,0.022465190736062443,-0.2792451929842098,-0.1260992691234312,-0.18506302668712016,-0.2825059493613212,-0.2595658608681727,-0.7597937959442703,-0.5124154406830556,-0.576784502231098,-0.4106473039097577,-0.08371340965316344,-0.2993139969420177,-0.2738125609036972,-0.24984078202442556,-0.2534350242869268,-0.3145895945166934,-0.3404068745354832,-0.31078359036834696,-0.23633834412078916,-0.20401807601673627,0.0013074185355032243,-0.2096142856530296,2
11.8,29.1,7.725,5.625,11.875,20.35,5.95,9.05,753.0,2042.0,463.0,366.0,778.0,1206.0,374.0,634.0,16.0,20.0,16.0,15.0,16.0,16.0,20.0,22.0,-0.2745020791354548,-0.05130568218137395,0.15939292565983412,-0.17632024897323575,-0.3795723810472059,0.08164406896129038,-0.3715547107290961,-0.21811585289080265,-0.08152427716421938,-0.2686913185088616,-0.11326714168883212,-0.20758001550842287,-0.20615702593932886,-0.13803194352132758,-0.0073402158331837145,-0.24969227505534186,-0.5346166213184268,-0.15423696140325882,-0.14759955833707702,-0.2318227050809913,-0.15205092194695566,-0.110961044610476,0.1043610682888253,-0.15432243765216264,-0.40047959721757376,-0.4214212593608293,-0.30728141331013537,-0.1600934569572144,-0.4114904619626367,0.1239833934942458,0.17297791864011236,-0.25545371191952004,2
23.475,16.15,5.0,3.15,10.2,22.3,5.525,12.225,1620.0,1018.0,337.0,197.0,707.0,1398.0,337.0,859.0,17.0,19.0,19.0,11.0,19.0,18.0,19.0,19.0,-0.4981419212632005,-0.3736208822567581,-0.10037252923063554,-0.3934583562078806,-0.41144042695982597,-0.15436889944097645,-0.2669918264977879,-0.3997575585699815,-0.4720602917617756,0.020363207852834197,0.04615167586457311,-0.21669960199415386,-0.1709146836950864,0.28476835545656165,-0.02181198509259336,-0.10216784727799902,-0.6191662036605036,-0.2444262391998061,-0.3888662246409317,-0.4052867109138711,-0.4767223204443604,-0.5913379521047771,-0.5347903236501981,-0.2333709425429377,-0.31342505639254,-0.27852478752758353,-0.2341324933628192,-0.08819602928257328,-0.5294883364248483,-0.2919693540573641,0.057967094263315935,-0.08461833728689762,2
19.75,9.675,4.55,8.6,12.9,24.9,33.95,13.725,1386.0,612.0,247.0,458.0,837.0,1304.0,1751.0,859.0,18.0,19.0,16.0,15.0,18.0,9.0,10.0,14.0,-0.6123264856773539,-0.2785668444483918,-0.30034283041006904,-0.28970140695362123,-0.5876606384991161,-0.4540827630151424,-0.3394164990391779,-0.3261488776293896,-0.13787250909018892,-0.3800792381345508,-0.21574115668932986,-0.13601661913309615,0.28082845321929806,-0.4566780808024419,0.04221104425496816,-0.18287255592428933,-0.5126205981063119,-0.2911300052287641,-0.4591168763482526,-0.205237451924231,0.005110456881593596,-0.25089886237148473,-0.1706054148618421,-0.3009865643549581,-0.09788968619203116,-0.18885658944365835,-0.32972689485586226,0.006742470037918921,-0.461680478649169,-0.34197501908038763,-0.412258748339406,-0.22307790448085332,0
20.5,8.95,4.95,7.3,7.625,11.1,33.45,11.975,1322.0,592.0,303.0,518.0,539.0,749.0,2362.0,846.0,16.0,20.0,14.0,23.0,22.0,16.0,23.0,21.0,-0.4256043067826925,-0.31465760846888513,0.100478563073958,-0.16573371820095426,-0.6404978304606748,-0.2166796681655596,-0.16282254935187632,-0.23575490754637105,-0.6412137437165628,-0.3752760050733445,-0.4702523239138007,-0.4946162932056749,-0.66717668731951,-0.2807241614439651,-0.19322451504462493,-0.0734181321993667,-0.5483576918807747,-0.260063833603887,-0.06274489675816725,-0.08798362564129965,-0.4741095149197247,-0.2814672733446417,-0.31920961421404426,-0.2882593025227461,-0.765784816901266,-0.4343711664961555,-0.4630381383292693,-0.5618789326902613,-0.5942857046545327,-0.2999344252534943,-0.2533412596069236,-0.4407862062839517,0
9.55,2.6,2.4,2.65,19.175,17.95,2.025,6.7,481.0,127.0,148.0,175.0,1230.0,1073.0,107.0,440.0,14.0,12.0,16.0,20.0,15.0,17.0,15.0,18.0,0.023283367605330615,-0.4375609249773375,-0.22114371707965966,-0.06620215717097712,0.2222298614744204,-0.04043943402784702,-0.33462894711866986,-0.16918873841668594,-0.23447643328275136,-0.2292267817260912,-0.0715446994126527,-0.18859702589298216,-0.6916849927574908,-0.6792641382163286,-0.1166073614020722,-0.1982813787394258,-0.4260589448150857,-0.18201107456433305,-0.4100785999559808,-0.3052429105951555,-0.3956976704965762,-0.3531144947330632,-0.3953116161817116,-0.29010437322656096,-0.1047235490914417,-0.22470780290936376,-0.0960675874593712,-0.3222501658467363,-0.3005843212609259,-0.05261035506317948,-0.1872999607753976,-0.3555695782570343,1
11.475,13.95,5.475,3.4,10.8,13.975,3.025,6.475,828.0,830.0,335.0,195.0,697.0,942.0,170.0,354.0,23.0,16.0,16.0,17.0,22.0,18.0,13.0,15.0,-0.32342956181116544,0.0899831493879156,-0.02557591648627312,-0.1344604158332434,-0.1523360550506045,-0.1401107903213301,0.10207988859187876,-0.058408720320485476,-0.15044546833281827,0.11637684748356288,0.21084865129484096,-0.21109142440565568,-0.30102063191401146,-0.2629379656584587,-0.1538421735490428,0.0024168778564351385,-0.48732434505,-0.34701061331478444,-0.09376771383210547,-0.2230394831437732,-0.3274247533747748,-0.10043888389511656,0.10485475892581032,-0.234354973114684,-0.1441911435702627,-0.40498372243717545,0.0809026557901369,-0.09803282478109364,-0.10523713237821357,-0.35089776341719336,-0.12608173421981408,-0.1882414728209296,2
4.675,1.5,1.75,3.0,10.475,22.375,3.8,5.7,302.0,83.0,101.0,182.0,653.0,1474.0,214.0,359.0,17.0,9.0,13.0,13.0,13.0,15.0,17.0,13.0,-0.39400568410537823,-0.11963914718106165,-0.03235576990974698,-0.171369107207531,-0.22205781079393416,-0.10324587958614892,0.02408430270752266,-0.13295470165705167,-0.03845632049987649,-0.390329927504965,0.045446730727153585,-0.3542419059015276,-0.2691363533999315,-0.3880485829978589,-0.26991483303220914,-0.4700333602667358,-0.3506917396958058,-0.19061046210935892,-0.16988472594316753,-0.5367137644360755,-0.41761616698509707,-0.4132991416453196,-0.25113752686727986,-0.4420754892497423,-0.2874986892128649,-0.5991717812967559,-0.3545066747990671,-0.6104742634720547,-0.6247516204413648,-0.5573338352689442,-0.6402766160015352,-0.5015825931543693,3
10.8,2.325,2.0,2.175,16.0,14.125,1.775,3.475,670.0,159.0,112.0,131.0,1018.0,739.0,107.0,237.0,16.0,18.0,14.0,16.0,17.0,14.0,12.0,14.0,-0.4330203387287944,-0.2802018049548459,-0.361995562786541,-0.10061817018514242,-0.5263767859407276,-0.28985179221146223,-0.2163549198647573,-0.2973056573595658,-0.36036097358559227,-0.0956818204527281,-0.4870186585143032,-0.4298937887075808,-0.2821811946889335,-0.08625895837976919,-0.3837397478948451,-0.315735715656156,-0.451934213492364,-0.4079596500594173,-0.3932537305445163,-0.24408954335548744,-0.019529226328822508,-0.3758760460170648,-0.32162699528460903,-0.25376482752170154,-0.4040295402409998,-0.33734916055074315,-0.4404910490781167,-0.3095597009945742,-0.39692606863451785,0.01385334860287468,-0.15816107253313488,-0.1598144193360891,1
26.475,3.9,3.075,8.375,10.825,22.1,61.375,25.875,1826.0,226.0,172.0,546.0,681.0,1361.0,4176.0,1673.0,19.0,14.0,16.0,19.0,17.0,17.0,20.0,17.0,-0.7464274190884861,-0.7326757381299596,-0.5043007321188662,-0.5404562094045241,-0.39965418069705017,-0.3186471553497144,-0.2105943955456029,-0.26442389393522875,-0.2039769018852173,-0.20156337902843724,-0.0587628690010213,-0.0036187152917630007,-0.5446660951964908,-0.721669235684835,-0.4654293690893821,-0.4016394335671167,-0.6167650880960789,-0.7676190083854577,-0.365056785908589,-0.36661302917719,-0.4479806648674114,-0.6142094610798513,-0.16474400361486202,-0.3326193619176468,-0.6791060258593219,-0.4262977969955187,-0.29208702007618864,-0.2852793177520743,-0.4067175057842616,-0.4783808692851183,-0.16749432135372458,-0.4776471550992478,0
16.425,15.95,4.225,4.6,10.55,19.775,3.8,13.875,1166.0,917.0,259.0,263.0,658.0,1279.0,262.0,889.0,22.0,16.0,17.0,16.0,18.0,15.0,18.0,18.0,-0.7201881481550223,-0.30617798828940423,-0.3869481071316792,-0.29871147716122354,-0.171777337916636,-0.4199639325009597,-0.22347918944309395,-0.42672288228106586,-0.31027583026608696,-0.202182702112833,-0.06532179174255455,-0.1812282864209568,-0.2559814402186893,-0.17088654703794104,-0.4075923752883107,-0.17856067374461373,-0.3249674300446768,-0.10702749271668767,-0.4184430119132333,-0.3276899252748869,-0.279065944646444,-0.14520807454524734,-0.13635957781481398,-0.22338438026720325,-0.21041808246881796,-0.4892790895653233,0.06010180645415252,-0.4018999762956558,-0.6489117378171126,-0.5770634839425292,-0.4366862005745685,-0.4340686731237636,2
10.75,1.75,1.8,2.675,13.475,16.025,2.375,5.55,684.0,98.0,103.0,159.0,854.0,798.0,157.0,384.0,20.0,11.0,11.0,17.0,21.0,13.0,19.0,21.0,-0.2763423307463859,-0.22092902053953736,-0.030485551589232118,-0.039832754268103454,-0.03834020618316649,-0.5405775244773885,0.07349697309729075,-0.2567126101491227,-0.19148972628296526,0.0906827704453577,-0.03253226583721295,-0.12854111349611136,-0.4281356280898929,-0.33564647707401196,-0.23882060672980596,-0.4158852501524629,-0.4424933324096752,-0.3580092320059778,-0.3076622047206221,-0.3656156045380508,-0.1867752693892288,-0.4997669234957283,-0.2633591697517766,-0.28079401972344875,-0.389773276632936,-0.14803878371854978,-0.031853913531026616,0.14579631738741106,-0.6512920233409537,-0.2245311772139219,-0.13169347375017107,-0.18594027418007572,1
21.25,7.475,4.75,8.2,11.95,18.0,53.15,14.8,1518.0,464.0,313.0,515.0,749.0,947.0,3436.0,955.0,19.0,17.0,17.0,16.0,18.0,14.0,17.0,17.0,-0.7474466298996336,-0.3943484346851916,-0.21198633150120733,-0.19638130167118825,-0.3374315243480537,-0.13123176577046836,-0.17984015572426226,-0.38593615944243215,-0.3416691134703082,-0.2611527797911656,-0.1147688394754264,-0.0366073174363783,-0.3427255386487044,-0.5537136545659842,-0.0758650451798376,-0.08792224348232383,-0.5392835715811191,-0.3871273651343796,-0.4521644410194943,-0.28017991753162674,-0.22813218456987186,-0.3467525299426541,-0.470676088696307,-0.3219509707376258,-0.4351369127527985,-0.2633404809925006,-0.16802404820535366,-0.021977640598641445,-0.21048985657855251,-0.08911578619223197,-0.07765836465660264,-0.15622638643342776,0
2.05,3.35,3.325,8.05,8.6,2.675,7.275,8.875,117.0,201.0,205.0,530.0,585.0,147.0,358.0,589.0,13.0,14.0,16.0,18.0,20.0,16.0,10.0,19.0,-0.5297135996348343,-0.6823295001107256,-0.4369139731242035,-0.3292986665530542,-0.8254393200302422,-0.6969540852436467,-0.4041422095581024,-0.20196433909385628,-0.4768482965029818,-0.43916042905829217,-0.33110010586655225,-0.16061431592043424,-0.6437522261672399,-0.6893628898382829,-0.6344516851688733,-0.5012921031607737,-0.6221561262280805,-0.4517509799506561,-0.3950746332884604,-0.5145697492872432,0.06277303579647286,-0.4710313860718229,-0.10613212570841253,-0.1328326349303546,-0.075149145186353,-0.2788322448203123,-0.30329254686108925,-0.4610022529527985,-0.5884619958490417,-0.3126066002787621,-0.18203691071972344,-0.23137242017048895,0
8.325,2.2,2.475,3.25,9.675,24.9,7.05,7.125,544.0,131.0,125.0,184.0,678.0,1487.0,433.0,460.0,20.0,11.0,13.0,15.0,22.0,17.0,20.0,14.0,-0.3403841078494369,-0.01852404197434213,-0.17837522208830714,-0.010860218744995995,-0.1137122668547374,-0.07274984224205804,0.05283925114340208,-0.08152355692393358,-0.03628744755903912,-0.2880230803648416,-0.04074844482961206,-0.02167078596771669,-0.26728529313594274,-0.4305618786105542,-0.3224827019113477,-0.28582337523310364,-0.7795985884590251,-0.5224741046631325,-0.3431464434953718,-0.19606868021009916,-0.3241963545218445,-0.33372690868404203,-0.0934522378996688,-0.07655574570915742,-0.371706029039164,-0.36675244427174936,-0.1560094078420136,-0.3595180400318289,-0.2435150280697465,-0.03768912473375282,-0.3085740734948213,-0.012208459590771572,3
10.125,12.525,4.775,4.275,12.125,21.125,7.675,9.7,607.0,800.0,251.0,270.0,777.0,1332.0,452.0,553.0,20.0,16.0,10.0,22.0,21.0,20.0,19.0,18.0,-0.4309200786912331,-0.1967369251373577,-0.14095117946132835,0.02597507250324079,-0.3354513088523744,-0.23842109972465256,0.002835861295031334,-0.12883806181228247,-0.12842529586240325,-0.24557802957065697,-0.3102930498394301,-0.05361501534588725,-0.4749635711388757,-0.34038064977160065,-0.22141681354535267,0.037583033295960085,-0.581580444683005,-0.2398522045900221,-0.175044242542466,-0.21212906845744325,-0.6111886382724732,-0.6280939239010438,-0.5292955735415997,-0.3617341934844186,-0.28673982196197706,-0.18917257506104407,-0.05519850259082264,0.16197428896953936,-0.1802789264709256,-0.28525082073945474,-0.13142397709668452,-0.2471417267660252,2
10.875,18.975,6.375,3.6,18.65,23.525,4.725,6.375,679.0,1138.0,368.0,222.0,1298.0,1349.0,289.0,434.0,18.0,19.0,10.0,15.0,21.0,14.0,14.0,16.0,-0.5100147849023001,-0.4036633971011649,-0.2982527228636092,-0.13449216327113656,-0.28694394765852804,-0.2261504282288593,-0.2647895686777565,-0.20843012544770856,-0.13179627568879945,0.02502116190713206,-0.043097761832705236,-0.11727459855957985,-0.27618680343935353,-0.11970090394412247,0.06882099395603808,-0.1172410160365011,-0.48845057020007,-0.3398639362012198,-0.21172562362000386,-0.14011488837071034,0.026152660519408788,-0.18392377650302533,0.15332291966173606,-0.2427024295800457,-0.3474964878952978,-0.1509257887932974,-0.13953506594632278,-0.2210340949980081,-0.6157612159013243,-0.3303040673061511,-0.21056533397624613,-0.11948049325218273,2
10.55,2.85,1.875,2.35,11.65,14.35,1.825,4.325,660.0,134.0,87.0,140.0,681.0,723.0,102.0,250.0,19.0,10.0,9.0,17.0,14.0,11.0,10.0,14.0,-0.3444450012195355,-0.4014316037578761,-0.21392704363631374,-0.3549203688612184,0.054865343889312204,-0.4164958250285301,-0.06404589507975335,-0.2929193514154977,-0.0011212761879107454,-0.14621538665572095,-0.19609720750268048,-0.16762351937152187,-0.3335891854291124,-0.13103234825129953,-0.25481781963204864,-0.5273671099567719,-0.1845248127543755,-0.19713283753288255,-0.18345740989721232,-0.19158606139103865,0.009079236291540671,-0.3331554539876068,-0.10267237596107363,-0.3829816531307022,-0.2881234468219195,-0.12179279968045932,-0.3349737811254258,-0.3049266684562882,-0.2970109754027824,-0.3372250164543977,-0.2782421167047656,-0.21866577751078714,1
24.55,18.15,5.5,4.575,15.925,21.75,4.05,9.05,1612.0,1204.0,305.0,267.0,1072.0,1357.0,257.0,604.0,20.0,18.0,18.0,15.0,15.0,18.0,18.0,18.0,-0.767486349944484,-0.4934993279625345,-0.3754518923946179,-0.3174160853069389,-0.4736618007560911,-0.16942280690305606,0.16722458934950946,-0.05040184122452072,-0.01901454151519302,-0.1298675468384817,-0.1260150370722798,-0.2492305718830755,0.012997440957972378,-0.19171353597980828,-0.3604576951310121,0.013698323791416821,-0.5443393486032552,-0.3897018674065624,-0.06742333586670889,-0.2561394207523957,-0.4301787967236636,-0.4074425317735535,-0.218166477974066,-0.14971544658598127,-0.7397702407917666,-0.7560077947091137,-0.4234147856941766,-0.28367181173409145,-0.29284731396081665,-0.04686402742426544,-0.08131366575194499,-0.07535855154098868,2
15.65,1.575,2.25,4.125,8.85,6.275,34.325,16.025,1031.0,96.0,128.0,228.0,613.0,373.0,2316.0,937.0,16.0,12.0,12.0,15.0,22.0,14.0,20.0,16.0,-0.4694316753757546,-0.2263120383550537,-0.4109298165748809,-0.2356716677901732,-0.5029650236493985,-0.13611714814726542,0.2262256786670028,0.06694771959983764,-0.13063916911252535,-0.2348309340704213,0.03438362728851831,0.07866674739626123,-0.047969159685480295,-0.0002177319036125674,0.12916292363132714,-0.05222411317802431,-0.603885649362056,-0.17496490319506128,0.003200664622437502,0.13440537837371713,-0.2971559323840042,-0.8119937243425871,-0.21659426524177802,-0.6313094332693098,-0.5961856580628402,-0.5496567688258088,-0.0683236279128337,-0.20238861788274826,-0.34692478846078273,-0.4218753771999703,-0.3292960621916053,-0.40008279455945656,0
11.675,2.15,3.675,2.375,15.15,16.15,2.45,5.9,734.0,126.0,143.0,116.0,937.0,909.0,128.0,406.0,17.0,10.0,10.0,11.0,19.0,14.0,17.0,17.0,-0.4858998776768319,-0.35351224805061243,-0.3538217540271191,-0.4024605550416856,-0.5078704466329345,-0.4154098592228184,-0.3408692780468706,-0.3919530951606622,0.7244266266782743,-0.14620692143303138,-0.1876483681598851,0.022716014814395332,0.25453790738146914,-0.0671432197480698,-0.1062438131167686,0.2903408857247733,-0.4098582769772385,-0.4076660494395704,-0.4330045424995391,-0.2334588445920125,-0.16132003544541726,-0.3734987539591065,-0.22066108215038305,-0.23500605115844975,-0.04428869209987458,-0.10720691617407467,-0.0893170151960095,-0.042114260209728936,-0.4617475783203506,-0.4808401771627013,-0.3010035805445577,-0.33752414108678713,1
6.9,8.425,3.425,2.875,12.775,17.4,6.525,11.225,421.0,590.0,196.0,169.0,859.0,1136.0,375.0,721.0,21.0,19.0,13.0,17.0,21.0,23.0,17.0,16.0,-0.08230231612865141,0.32048415270248826,-0.1620147215984718,-0.05077457799557964,-0.452644382429168,0.034621985567156066,0.27703810875588897,0.005435342083425804,-0.25205321042254675,-0.3190522900382218,-0.399848429552284,0.008016287153253861,-0.31108890822621604,-0.3186251971068472,-0.19144272864254444,-0.028253275896157892,-0.7172709273785528,-0.6017503417558397,-0.5137751308428912,-0.3354725605538477,-0.4904884731357964,-0.4209259250268468,-0.20859487244143984,-0.16535624143183356,-0.3454399448208001,0.0046946627603041274,-0.23016331042975136,-0.18672333832846524,-0.25840919942685703,-0.033805029817086836,-0.23186590610766494,-0.08165884107925812,2
10.175,2.075,1.9,2.6,14.55,12.75,2.225,4.6,640.0,131.0,126.0,178.0,961.0,803.0,126.0,289.0,16.0,15.0,15.0,16.0,14.0,19.0,13.0,18.0,-0.5397445724127116,-0.3235444878633834,-0.3855262548304557,-0.36449126950911703,-0.5839149375775533,-0.3899608620759654,-0.5197268888713642,-0.4861638222957305,-0.5139270756988673,-0.0041566251099493644,-0.10310377214630896,-0.31113186311872104,-0.4579082822891117,0.17773812454136734,-0.2271743530856469,-0.4691552202444406,-0.4211830910530506,-0.2568039239690081,-0.2420734652043047,0.03448680773969248,-0.39425855735812265,-0.4582965008677145,-0.18298408396527274,-0.2361893530613751,-0.3155878969126273,-0.425274315351642,-0.08474376416585358,-0.14063984604000435,-0.5513299307696902,-0.5653667738874455,-0.2833965537527333,-0.14354273738852447,1
8.125,1.975,2.375,2.9,12.475,24.225,6.425,10.3,572.0,113.0,125.0,168.0,788.0,1505.0,368.0,647.0,21.0,13.0,13.0,10.0,17.0,17.0,14.0,18.0,-0.5631808714142232,0.0005858730804319309,-0.3270008658305771,-0.4322120038618277,-0.020985272611207858,-0.022039501725792183,-0.28245038972664194,0.1145848048168425,0.08779122563076758,-0.3818542577369719,-0.10539891023753566,0.026922798180628597,-0.11511452256442732,-0.2055698920616044,-0.05055759953365828,-0.10611908317370744,-0.4822450171759393,-0.4886542788925617,-0.14663648181120364,-0.3081337366682005,-0.4652238104062031,-0.4686004646184173,-0.5300562403006437,-0.3057496011155318,-0.5028331929678526,-0.5445056920005488,-0.5020256283495079,-0.3962124985375657,-0.5210277089042912,-0.31760942730707026,-0.4863181963005868,-0.5789354633594435,3
19.3,11.95,5.975,8.8,12.575,17.6,31.525,14.075,1367.0,806.0,385.0,580.0,876.0,1046.0,1927.0,853.0,20.0,19.0,17.0,13.0,19.0,16.0,17.0,15.0,-0.977697122377145,-0.6101663120753353,-0.06777615166513798,0.002083904078341576,-0.5505634272196873,-0.023400351168351145,-0.4720044055572441,-0.4826955206156587,-0.3756666190413177,-0.08097667219962132,-0.25231077837854576,-0.3143261022222549,-0.4191449064389846,-0.3264686409239308,-0.20334193255043695,-0.20201293573272594,-1.0339975255158291,-0.8500209045187456,-0.4678653419402413,-0.13770794859139782,-0.2451172186824585,0.07809050510287976,-0.09739697445481203,-0.04725397314699677,-0.4027510662195608,-0.3054702489281528,-0.3686659891982496,-0.5426001001731773,-0.35587324949054683,-0.4488044915871687,-0.29539729519643393,-0.4518015371006078,0
19.875,7.9,6.725,7.5,14.25,24.9,47.825,24.325,1405.0,553.0,451.0,404.0,899.0,1634.0,2338.0,1669.0,21.0,19.0,21.0,16.0,18.0,18.0,13.0,19.0,-0.5857941600173716,-0.3544919059869547,-0.3109980357450625,-0.3976296788542646,-0.5113937218636757,-0.2782822849394318,-0.022264971164551468,-0.18117594674366969,-0.39251052488157095,-0.2992420637047363,-0.2156071926081292,-0.4976483856801789,-0.2254047812550229,-0.23913654059145595,-0.450389478215903,-0.32583536772500354,-0.7290979927278,-0.359483108512619,-0.08904707471371448,-0.09079086500035584,-0.4658311281524227,-0.041719938114361886,0.02862608007910017,-0.30371666619754684,0.025381791265178158,-0.24053002388960734,-0.0343897894715316,0.06106783399536499,-0.5544744128816312,-0.43074877634357295,-0.19086607281247486,-0.2673380269895004,0
17.25,9.55,3.775,4.025,10.2,20.775,7.55,11.575,1150.0,587.0,202.0,242.0,584.0,1234.0,465.0,775.0,19.0,17.0,15.0,14.0,11.0,15.0,15.0,18.0,-0.22895376386309596,-0.31811232450800536,0.32766938530993256,-0.19740335981985985,-0.31131319577842426,-0.22717980348884026,-0.1535165527721463,-0.15091336291028862,-0.4585076795066846,-0.6837240961723507,-0.4868850292632362,-0.4588441682693947,-0.3903676705707119,-0.22681087073105854,-0.5049582814392222,-0.3269185934194021,-0.26852889819739545,-0.21079412433175693,-0.15033265135225662,-0.17335549259932198,-0.3258727287709921,-0.24488651650634335,-0.4034458946564462,-0.14469190821106845,-0.3822512472430011,-0.30893328157560346,-0.25843139494945977,-0.2884886698196487,-0.4197684536938759,-0.08079681553550679,0.024602297470612225,0.06434861653536664,2
23.5,12.325,8.625,11.55,10.4,15.5,42.85,18.25,1528.0,814.0,633.0,796.0,623.0,1031.0,2688.0,1170.0,17.0,22.0,22.0,20.0,15.0,18.0,18.0,17.0,-0.6452421992089538,-0.4860486063762733,-0.4985024553731188,-0.6128765143854901,-0.5052436368249436,-0.24069553670845564,-0.2617293367463088,-0.051754580966716784,-0.8323035080470994,-0.5972887124833418,-0.19232215407131809,-0.17298665932919907,-0.9807591052579177,-0.8974782340858606,-0.5603071581850647,-0.3869085191578337,-0.5006157891667121,-0.389511164416024,-0.11305917994389475,0.05363067497972426,-0.6164072979493588,-0.4304782056532295,-0.4815344608969978,-0.2634877401248222,-0.7010970158411226,-0.7212709857432471,-0.2618720161173313,-0.24872403289586356,-0.5324822272599525,-0.5231021405652628,-0.12572024004598176,-0.10842637747050636,0
7.675,2.225,2.05,2.925,15.475,12.525,1.75,3.275,439.0,112.0,122.0,200.0,975.0,695.0,109.0,186.0,17.0,11.0,13.0,18.0,19.0,17.0,16.0,13.0,-0.3287525041229107,-0.4550849582560118,-0.24737744107078646,-0.4306855442775464,-0.12455051983966466,-0.5042265261198261,-0.16779793371034346,-0.2644333504957616,-0.3200248720532867,-0.3082691687319476,-0.4955271096151216,0.027299411662080875,-0.3694994470428283,-0.07624265273293683,-0.3816273381014103,-0.0476157199977572,-0.6555343360973817,-0.5350298393751721,-0.2108468040001541,0.12922718644607514,-0.3344155014161153,-0.7602485815509329,-0.2267026042809169,-0.2931268811118108,-0.15371593543956774,0.05803730363900681,0.135847575654135,-0.05351929547121046,-0.16876951174852528,-0.2718155054543707,-0.4387673184313545,-0.2170719098766947,1
11.875,3.325,1.7,2.675,12.675,14.85,2.025,6.525,810.0,198.0,107.0,176.0,844.0,953.0,123.0,430.0,16.0,16.0,13.0,20.0,21.0,17.0,10.0,18.0,-0.5443743966312599,-0.10152164852897302,0.046329493368009685,-0.1820723928851999,-0.1676562933528617,-0.002859055355520945,0.044649966589659175,-0.39629077000118185,-0.2826740891708958,-0.1005610271071394,-0.1784499666911929,-0.3225113453531733,-0.477365865969373,-0.3353060613536295,-0.09579204910587363,-0.033234437109543935,-0.6210027443680813,-0.5997687342270855,-0.07306643551280123,-0.17020251740509074,-0.28211330115273703,-0.3632653426046069,0.09309055927479848,-0.18260768494730015,-0.036629415348949895,0.17444867415425205,-0.253191479448185,-0.3534476159933918,-0.32337212626537554,0.07372565152326573,-0.08194155691800163,-0.18632353951555194,1
8.475,2.725,2.025,2.6,14.875,11.275,1.7,5.325,514.0,166.0,117.0,151.0,1034.0,695.0,111.0,348.0,19.0,14.0,14.0,11.0,22.0,18.0,14.0,13.0,-0.2411668078592953,-0.3309340809589216,-0.15433033260375456,-0.08951153698639114,-0.3341502787842416,-0.3035591376918754,-0.23506213862831496,-0.5009362767562999,-0.2107736218128557,-0.2601814952525016,-0.2571865068192093,-0.4365160578005802,-0.1977488493513896,-0.12552058475393954,-0.18568771892783348,-0.2906799542560359,-0.953395074177934,-0.7378772493422397,-0.659126458586616,-0.38074659886564616,-0.4206493273463783,-0.6021638867439517,-0.2583962342131548,-0.2321058788663582,-0.32785086445715045,-0.07189257144538141,-0.3032179878443126,-0.7200064110825847,-0.38199650912878896,-0.11351395364247895,-0.17822904436798104,-0.6283179904757394,1
7.625,11.525,4.025,3.125,11.0,18.6,6.475,9.725,463.0,763.0,269.0,188.0,706.0,1310.0,369.0,606.0,15.0,19.0,21.0,12.0,19.0,21.0,14.0,15.0,-0.19923631637753847,-0.012481604609178154,0.11094149738616743,-0.2158576315137836,-0.4656767653858009,-0.053497190514444494,-0.06938575910221456,-0.15849076266485368,-0.4994791467824638,-0.2509042680380217,-0.5217962867125916,-0.3341438822035551,-0.4597574264026881,-0.5240430003281855,-0.5458625209542669,-0.42547779086991816,-0.4006498397032063,0.0295546997889029,-0.08393863236825556,-0.1637887571939974,-0.5104180344941495,-0.2499324309140765,-0.18818874724957266,-0.26936843326377835,-0.24102594787239004,-0.2146059958481249,-0.2360575887330651,-0.022205242431493,-0.4147952455111851,-0.1798795980200846,-0.2304121424293956,-0.2717483043588611,2
12.975,3.45,2.175,2.95,20.0,18.1,2.525,5.825,732.0,209.0,113.0,162.0,1288.0,1085.0,169.0,411.0,16.0,16.0,13.0,13.0,19.0,17.0,19.0,20.0,-0.1045226689443474,-0.3618322466610605,-0.0017250987599038519,-0.2365800537118835,-0.3259952078156444,-0.2090099837451232,-0.030873468477028883,-0.17358373499624624,-0.011685486671937615,-0.3867791457153247,-0.20853553991477095,-0.1428393738874245,-0.13754157330877725,-0.3461159865753444,-0.0548270151919854,-0.2819839167856933,-0.451187475030085,-0.44581837375442623,-0.3090910328063752,-0.2440991436791131,-0.37602593309956295,-0.6224638009786958,-0.4227762684630429,-0.3659143261523832,-0.5452596345683445,-0.11778287130669753,0.05154594658871813,-0.11657699946336393,-0.39821594183883613,-0.050199118227709935,0.01779065577749724,-0.1444770963392658,1
18.5,13.075,5.45,5.475,11.375,16.3,6.375,8.95,1157.0,768.0,355.0,303.0,771.0,1034.0,346.0,596.0,20.0,17.0,17.0,8.0,17.0,17.0,12.0,16.0,-0.6092171491293534,-0.40133329016011016,-0.43694862677189983,-0.490175738948311,-0.41840340911740265,-0.12942843546764046,-0.16102928472634231,-0.2479199393202932,-0.26635756343193745,0.06413467061603685,-0.2177120003452856,-0.17269793197494895,-0.1601491412863044,-0.08894303743208322,-0.19692281990042046,-0.3691774661804251,-0.4371440107028955,-0.2951799529375842,0.12300983310372902,-0.05465656869945184,-0.17610253626005806,-0.12116631607821965,-0.0011921088339723852,-0.13515327443939226,0.10456761136602796,-0.3524477007070175,-0.12109014372927925,0.16269746071866226,-0.24163676436121975,-0.03463155707839551,-0.1544407339447919,-0.28083985814839474,2
7.725,2.475,2.375,2.9,10.45,28.95,6.525,6.525,402.0,158.0,136.0,181.0,659.0,1858.0,371.0,376.0,13.0,13.0,12.0,18.0,17.0,19.0,13.0,14.0,-0.14790580470418732,-0.5048156258220069,-0.20232427551272952,-0.21786645909442573,-0.606605256209284,-0.4253835204556619,-0.07361298395825071,-0.1795553752533567,-0.2397558912267584,-0.26873767792346365,-0.04618228505269496,-0.27427988165304706,-0.17332270154529053,-0.22389552906124385,0.11176075784885672,-0.2734151739204693,-0.5452297731373639,-0.17002368025140746,-0.3972033351539131,-0.4141361164147535,-0.4936729895185782,-0.09047765100396088,-0.094682791580001,-0.21266325256896834,-0.2501861057656751,-0.26798884535206635,-0.08047490694001906,-0.26753254215088396,-0.3789149410358684,-0.4122985434628119,-0.3508017561477614,-0.2013759828551532,3
14.8,12.525,4.225,4.975,14.9,21.3,5.725,8.55,1018.0,820.0,238.0,297.0,1025.0,1497.0,354.0,524.0,23.0,20.0,16.0,16.0,20.0,21.0,15.0,18.0,-0.5037260762449256,-0.06398481713153413,-0.05190124772940228,-0.2972945138522436,-0.6812262211962541,-0.516873427894416,-0.4412280147285752,-0.18282755923410665,-0.194383266261174,-0.3118807767546427,-0.05614535506315766,-0.2776575808303774,-0.5498690787316729,-0.634837069483116,-0.4776302401709355,-0.5563774893041757,-0.6681307352461229,-0.4577558794453504,-0.31726137154072737,-0.1711491759260959,-0.5601749264754196,-0.3182836081978153,-0.3500560237306487,-0.16765273895236898,-0.2190384011837072,-0.2498747758528333,-0.2925909141655492,-0.001727247440385454,-0.3615405681979139,-0.2575140704408516,-0.302184770665377,-0.2534255071639759,2
10.925,14.975,3.8,3.825,10.4,16.325,5.5,11.575,659.0,751.0,231.0,205.0,709.0,981.0,338.0,719.0,17.0,12.0,18.0,14.0,21.0,15.0,11.0,21.0,-0.3008560947019824,-0.10190968515622514,-0.11356230063790552,-0.24569156329493744,0.13990929682599532,-0.2966759811753564,-0.05524167062507288,-0.2898277355364908,-0.38975549340399257,-0.1838080261556106,-0.31164504221909084,-0.1684992282309927,-0.4348150462831674,-0.6639843052117208,-0.5468206759511125,-0.35361313685430457,-0.5700190031249862,-0.3129995224171232,-0.11954418570594293,-0.13625165473744252,-0.43314188596082376,-0.2165819287821152,-0.18088976484959,-0.2306719440305435,-0.4566124970216526,-0.3953151251621615,-0.22937006558005701,-0.09858527037139564,-0.4792554987988418,-0.28741109045320884,-0.32895799088840744,-0.2490938235137769,2
19.2,7.8,5.075,4.8,7.275,10.15,16.35,9.2,1377.0,522.0,300.0,317.0,485.0,643.0,1052.0,630.0,19.0,18.0,14.0,16.0,19.0,16.0,16.0,19.0,-0.8467231160574337,-0.6151725506178037,-0.4918684496989965,-0.32510787016149245,-0.4058850510730441,-0.2844562158690868,-0.3251315306535296,-0.08925057359042902,-0.5441195833944492,-0.20598955760274507,-0.5618173191156977,-0.3632654328590048,-0.31944229788871115,-0.22442785092035503,-0.2012156440246461,0.16813176597392018,-0.6676187528100826,-0.3395725661195467,-0.26369842308226393,-0.09966365801479628,-0.4806262150615562,-0.2739064033310389,-0.4258424734052609,-0.2148143001683516,-0.5054558059728116,-0.5280406509962302,-0.5210423203453498,-0.2274156869216739,-0.3921458563425996,-0.15215042657895256,-0.07817510232166153,0.19248973851614132,0
18.575,20.925,5.125,3.925,12.4,21.675,5.425,9.775,1219.0,1526.0,327.0,220.0,780.0,1339.0,354.0,646.0,20.0,24.0,14.0,13.0,17.0,21.0,17.0,17.0,-0.5667015182321379,-0.15447403380086028,0.053478276500388784,-0.0074961243935074955,-0.7889843146407051,-0.1767396056283924,0.10128522225796496,0.01499106931993554,-0.29164666209457296,-0.07328139518180757,0.021079491099501798,-0.24132088316245226,-0.16232178111280232,-0.16865672101116874,-0.12958281070793587,-0.10267225605174596,-0.3545908025283024,-0.2567725059244821,-0.1595003887876191,-0.038007281049903585,-0.2341370641284751,-0.34310552210214,-0.04750689659126536,-0.08130477614772398,-0.4938714294671045,-0.16787247864254512,-0.2262384794890765,-0.28993912441984904,-0.6272175541836099,-0.5016256263338476,-0.26367548351704995,-0.22039635333422872,2
20.85,22.35,6.25,5.025,13.075,22.85,8.025,12.675,1437.0,1441.0,408.0,320.0,777.0,1549.0,534.0,802.0,18.0,20.0,16.0,11.0,16.0,20.0,18.0,20.0,-0.4649965476886393,0.022053724146397703,-0.03987849215549795,-0.08156058088571393,-0.6476336547920066,-0.5614277343461838,-0.3809198980728129,-0.4109626380959397,-0.36773903525938745,0.028130899591405183,-0.2509995680118869,-0.42783208949674095,-0.33820679285719285,-0.1472112807926816,-0.2578869903262365,-0.21962778837229405,-0.223157129773928,-0.18714918085711896,-0.10937551449330728,-0.4217764737557334,-0.6737647656617386,-0.4210490123048914,-0.3326391430712448,-0.204743840593488,-0.7168008374992547,-0.4999180029528675,-0.26839718116377353,-0.03359400607137967,-0.4720373001791298,-0.40288079827942175,-0.3368156252190602,-0.3884665157203139,2
12.7,3.05,2.375,3.125,17.975,16.15,2.425,5.575,710.0,192.0,166.0,204.0,1202.0,988.0,131.0,345.0,14.0,14.0,14.0,17.0,16.0,15.0,13.0,18.0,-0.23310076647197725,-0.16347941042480468,-0.4995212728643896,-0.2730940981834805,-0.2750791195031688,-0.3166115890331265,-0.2184923218234316,-0.3965118877350517,-0.4513568839476999,-0.3749288972033627,-0.35866190637723105,-0.535896272293919,-0.5549541552466754,-0.3878145961976049,-0.4900372563680168,-0.4836016171138578,-0.5732300353157399,-0.3100272679137004,-0.2772409964208261,-0.4288454719668061,-0.3801755788803763,-0.294447864604959,-0.22531223020448854,-0.5988979011974292,-0.03846598450685935,-0.1875422050987437,-0.14198379355881394,-0.21536374401540725,-0.5392687598021201,-0.15538539497382609,-0.2321985577478071,-0.4455503582919377,1
35.075,7.275,4.975,8.2,16.35,24.625,59.9,37.575,2171.0,439.0,306.0,520.0,995.0,1343.0,3380.0,2198.0,17.0,15.0,19.0,18.0,18.0,16.0,15.0,14.0,-0.43046157899412,-0.32312349189258355,-0.2328783016043369,-0.1375475326882451,-0.3475570088577125,-0.05223093784707518,-0.1397401664641808,0.01466370347907534,-0.2906325713495133,-0.14719328884996033,-0.3742907149755493,-0.18863069755271625,-0.4768492781122926,-0.3875526947400815,-0.4533331553695214,-0.12760302038969615,-0.369692581177577,-0.2929530127608338,-0.1995913362857762,-0.009818048601243176,0.0008990987239085277,-0.3339820345828484,-0.205296565050269,-0.010269108801033574,-0.15827328819206912,-0.3177713295931766,0.0051578098220451144,-0.023872985020737203,-0.1834914738656687,-0.2347125977423141,-0.0034409904382044104,-0.1470493532177044,0
7.7,2.425,2.5,4.95,6.725,9.625,31.325,8.85,517.0,123.0,159.0,303.0,431.0,444.0,1703.0,549.0,13.0,15.0,19.0,17.0,17.0,12.0,14.0,15.0,-0.5584270718746439,-0.2769260721745089,-0.3822702643337892,-0.33374323649901344,0.0543061998115412,0.14673688941721486,0.13173343140324978,-0.4289156326528117,-0.18385759234936627,-0.00879191370194674,-0.01718949346090014,-0.4835616868716336,-0.16267567474561914,-0.10378934181831256,-0.023293416519767345,-0.4283061705087415,-0.3377791107215113,0.09018701782902594,-0.2804374369482572,-0.3212558781035772,0.0961075553048374,-0.0016983260360396587,-0.2269379400506479,-0.14342873547312934,-0.13675752378495865,-0.13299437109165646,-0.20091815413592207,-0.28926992232181525,-0.2039210849987799,-0.16303490606584398,-0.16637329675741594,-0.2928510866663515,0
10.2,8.375,3.025,3.725,11.65,14.075,3.275,7.425,731.0,554.0,185.0,235.0,809.0,942.0,194.0,456.0,21.0,20.0,14.0,22.0,22.0,19.0,17.0,11.0,-0.6996576368240219,-0.17589120939126648,-0.08152166585667818,0.008157186835186122,-0.3047087600679079,-0.15234156521483794,-0.08602928955702327,-0.02493462863166873,-0.5121380715298498,-0.26982144195652075,-0.4619211996947336,-0.3171986825063964,-0.7669861970590302,-0.6842724716314099,-0.4053276240857143,-0.32431661558533104,-0.6835984590171481,-0.4636174569961464,-0.2936399031635627,-0.1573627481925727,-0.469026110433334,-0.5778040059742868,-0.21999179352503628,-0.4312701083654165,-0.3839559132373414,-0.17672461236801518,-0.18311890318852286,-0.21297684124308472,-0.2319025133869854,-0.1306234914261904,-0.19103793403700287,-0.10349261567437963,2
20.9,3.225,2.025,2.625,20.175,15.075,2.1,5.975,1301.0,193.0,105.0,141.0,1357.0,1024.0,117.0,367.0,16.0,12.0,11.0,13.0,17.0,20.0,14.0,20.0,-0.43665757593210175,-0.2824627874607386,-0.279512102322288,-0.14913243994603909,-0.5575209741602734,-0.5676799275566545,-0.4358421206719113,-0.3486643002528129,0.04462734422737225,-0.11242704653279983,-0.4066431775365013,0.05965456306620514,0.01807475404582554,-0.29056723606589513,-0.19856586368117346,-0.1536746854046296,-0.4594713649527453,-0.18652272811577786,0.0006812586378936423,-0.08232826514454257,-0.2953914684051517,0.002175132051750209,-0.1785818378492333,-0.42987999482456735,-0.008628058244704239,0.09651035369541404,-0.2940202610157718,-0.11401847591314022,-0.2514833388182596,-0.11096855932138427,-0.2593654107217289,-0.39713109621392206,1
12.85,3.325,2.3,3.4,18.65,20.05,2.3,5.4,884.0,202.0,113.0,182.0,1199.0,1137.0,137.0,335.0,21.0,17.0,7.0,14.0,17.0,17.0,15.0,17.0,-0.32314622796515424,0.03884219854062368,-0.12140476670819356,-0.5153614355565899,-0.1841557432747095,-0.28028616533690986,-0.11303630414611808,-0.4375259832084537,-0.08070142145436772,-0.3481289370867903,-0.2806291430486161,-0.373883615386065,-0.2720871940146144,-0.31211097150831435,-0.4501981386464604,-0.3385440007831558,-0.7223262171126646,-0.6583427755613404,-0.523636814018271,-0.4450903588011964,-0.3931493947422208,-0.5985822108989586,-0.4710573829867415,-0.5502881274054428,-0.3675082485033825,-0.09918529534827904,-0.16813858185343564,-0.21976246403120625,-0.4710763396082377,-0.3917973989775732,-0.2384651616771482,-0.476796605588493,1
16.525,20.725,3.575,3.45,18.475,20.1,5.0,9.925,1099.0,1276.0,211.0,186.0,1213.0,1277.0,308.0,580.0,21.0,18.0,14.0,11.0,17.0,15.0,16.0,15.0,-0.6948891671396206,-0.4119510143862935,-0.16892538535007826,-0.07363700522267226,-0.3945316981876152,0.055173311621287496,0.22010734041986751,-0.09548570265389432,-0.3199754206235336,-0.356934823350153,-0.14215830003799262,-0.2345874860519331,-0.040619650281126574,-0.14137681575861696,-0.0013987394668263508,-0.1698263035227004,-0.4442982417000978,0.0065965393627930285,0.0576801139507024,-0.06306807354867479,-0.09030712102805176,0.03121903995509135,-0.02419151054232784,-0.006907270398000879,-0.21582535912607784,0.2623709835801366,-0.0865901410556215,-0.3188498715228924,-0.2493243014619833,-0.2455278232096689,0.012243267166577731,-0.042491008745292345,2
10.55,4.1,2.55,3.025,12.975,28.625,9.825,7.65,735.0,269.0,142.0,152.0,907.0,1931.0,631.0,424.0,21.0,16.0,17.0,12.0,21.0,15.0,21.0,13.0,-0.473154968999053,-0.3199135700988102,-0.021301755231664988,-0.08831343280693045,-0.43301299536507054,-0.4225198613609779,-0.10568033558416776,-0.14826046207732205,-0.24081345314096356,-0.3495831134774577,-0.1735276390834483,-0.1357416935473717,0.004805049527018911,-0.15338112118331473,-0.32615641390809363,0.048998018752817535,-0.7038654535613612,-0.3833731431959157,-0.1884704606221702,-0.3313541924002284,-0.5052094202052869,-0.17062836338759685,-0.14858256790151414,-0.2408948884064708,-0.31052198124292024,-0.24596745698654335,-0.18472449628969254,-0.17698897528654928,-0.35150382199564884,-0.16338997804465086,0.20019718690658966,0.31232034260723096,3
11.225,2.975,2.675,3.825,15.65,15.55,2.25,5.2,747.0,153.0,145.0,204.0,937.0,807.0,132.0,336.0,18.0,11.0,13.0,13.0,15.0,13.0,13.0,15.0,-0.5332043965479146,-0.3019395032711383,-0.08797612036238038,-0.09372935419957958,-0.42091619480632575,-0.4114661489658836,-0.32271091250671197,-0.3504949537427873,-0.2793864330473597,-0.21644728854284287,-0.3046741539215859,-0.4175846385108178,-0.3361170994860821,-0.3744713352939567,-0.3859679590679118,-0.3099361151209097,-0.2838651660109621,-0.3994703110349133,-0.3011131174932767,-0.2802398609492029,-0.3374545885431181,-0.4442536742075675,-0.3707759489342184,-0.3783579834504154,-0.4723616359585587,0.09913191014102997,0.14377110698136608,0.03889651084801361,-0.35344264315667595,0.03925796462493604,0.4266040420752528,0.170962715905624,1
8.05,11.625,4.9,5.95,13.325,15.9,3.175,11.9,532.0,717.0,300.0,399.0,844.0,1071.0,196.0,734.0,19.0,16.0,16.0,14.0,20.0,20.0,15.0,16.0,-0.4541387788366898,-0.2887174520631671,-0.2598546661835063,-0.18961567146169075,-0.3697577345945209,-0.3457284714412737,-0.13671984384174748,0.058235362623962006,-0.4137346061781755,-0.35976108025562165,-0.3707369506743081,-0.02605878886097124,-0.3216824537374767,-0.1895111868288158,-0.15253324197672552,-0.2780475115182834,-0.35383304859364795,-0.17291028332255146,-0.12106261168601687,-0.0570222870324494,-0.43427453790397774,-0.31877513088027043,-0.18277173436988,0.004536665238074258,-0.2914807756784013,-0.17459795420034402,-0.07207769211699326,-0.13062970649976025,-0.4958143167553842,-0.37675895368860496,-0.26864862130464456,-0.16358266902883367,2
13.8,3.075,4.0,8.5,11.125,13.375,33.75,13.35,857.0,159.0,203.0,523.0,671.0,641.0,1782.0,720.0,14.0,12.0,15.0,16.0,14.0,14.0,13.0,16.0,-0.8209554660944596,-0.8072821374748707,-0.6907080415793593,-0.3834461271831783,0.015269864009340488,-0.01396579376125076,-0.1364658994682528,-0.1587752034670581,0.0001355250796046375,-0.15433908489551684,-0.1064267395747666,-0.23326438633308105,-0.3673956104156723,-0.2311680376139769,-0.2911172878185208,-0.2053872333481295,-0.4532053419817789,-0.2738601912695816,-0.4939276963141407,-0.15200329690557365,0.07239284189498962,-0.12039685039073635,-0.2609172156041188,-0.2082666766152162,-0.22141514407010815,-0.4840042840465708,-0.25090814178497656,-0.222851725916004,-0.18340168379205035,-0.5514244260897294,-0.18472290091494128,-0.2594385216999086,0
8.825,10.775,4.5,3.975,16.625,21.6,7.1,13.05,563.0,713.0,277.0,247.0,1156.0,1340.0,436.0,846.0,16.0,19.0,17.0,14.0,15.0,17.0,15.0,20.0,-0.2486791138341331,-0.3338946320846218,0.1133241170999787,-0.310167250277474,-0.4659442684882064,-0.3118168594419039,-0.4676907992750615,-0.31362462854812434,-0.564873384053848,-0.2771764304019884,-0.3431210014782575,-0.14091846019714113,-0.7516236638955395,-0.7064883671966605,-0.7469935260968824,-0.4930200732435561,-0.8556168657502967,-0.5331164918148436,-0.3729960811424774,-0.25441136056105035,-0.5403365220940838,-0.37474451226296096,-0.35033647590393924,-0.3069302528670903,-0.2702602891352213,-0.4372783477774529,-0.14561195944670755,-0.2213037169274644,-0.5080080999296678,-0.2902832321777312,-0.01640271300631209,-0.015217588673012759,2
6.5,1.975,2.375,3.175,14.425,25.525,5.7,8.325,444.0,106.0,123.0,176.0,949.0,1663.0,376.0,518.0,19.0,12.0,12.0,14.0,17.0,16.0,18.0,13.0,-0.6703661266000459,-0.31569929327685176,-0.09235189546646076,-0.08270042021588317,-0.06039472892808617,-0.018566588936387244,-0.1614807265190793,-0.3827303872966871,-0.10905896934493337,-0.2459718175234613,-0.3778976732395297,-0.3756358387854495,-0.4512507696011164,-0.33214822033178304,-0.5618623170272308,-0.5214879083816433,-0.5692733662652428,-0.16161248132260667,-0.4263319744068073,-0.29549548343699866,-0.5867985221634335,-0.3108677203168171,-0.5849259026762741,-0.4230754642195274,-0.5926415586050333,-0.2147696563726074,-0.4186123696744973,-0.4355999568879408,-0.3798726957411631,-0.244296465593904,-0.14416150034421776,-0.12001961338124945,3
8.1,2.9,2.65,4.525,9.2,10.475,47.225,17.325,526.0,168.0,156.0,280.0,591.0,618.0,2743.0,1152.0,18.0,17.0,15.0,17.0,19.0,16.0,17.0,16.0,-0.6082965244009091,-0.4693309050446827,-0.24050630175964746,-0.16839531423265905,-0.17587556172366967,-0.01941442313483076,-0.03983378540136754,0.14038598541126912,-0.14049523643039902,-0.004385130247281555,-0.2412794290726511,-0.0228992242810771,-0.2854887453162825,-0.2671941241489761,-0.11405266823986787,-0.2973539707599908,-0.6605092848877518,-0.6511968640150112,-0.41455362120076594,-0.1364191029684462,-0.4375894143186563,-0.3639830233907752,-0.4449164292264851,-0.17540446500787454,-0.4744869687406998,-0.5565541787664798,-0.33502364352677844,-0.32288987137192005,-0.5643018617715658,-0.24601724394437266,-0.2680767919882263,-0.4118864798177282,0
9.875,2.65,1.575,2.475,15.925,13.325,2.075,4.8,631.0,159.0,92.0,128.0,1131.0,915.0,125.0,271.0,15.0,14.0,14.0,11.0,22.0,19.0,15.0,13.0,-0.37543647831252097,-0.2530402751537627,-0.3409905227130203,-0.2215722642897487,-0.2479592467502943,-0.5096618684640287,-0.05534583536009115,-0.4348783601724293,-0.10921350042246863,-0.3935001100318917,0.03246401097887376,-0.2905266131377996,-0.11879641921252265,-0.27582692910678885,-0.1456800227072238,-0.17358479919300115,-0.7959209402916603,-0.7023732956664743,-0.5194118207020547,-0.4343094348368536,-0.3964559966735379,-0.34435389586212195,-0.28581195380652696,-0.4827488013420754,-0.2204449352839488,-0.12681735077571735,-0.10788583791641228,-0.182789166486706,-0.28986506137714185,-0.2495238293656585,-0.2637201590748297,-0.19779092415348207,1
4.35,2.275,2.95,3.525,13.625,17.575,6.15,6.9,292.0,119.0,146.0,193.0,924.0,1061.0,351.0,395.0,15.0,9.0,11.0,15.0,20.0,18.0,13.0,17.0,-0.4518533289379221,-0.4209639787263566,-0.07094277774848537,-0.04264663659861,-0.28989888940538355,-0.234643882158767,-0.2778646970720691,-0.3487834298847877,-0.35800460689468444,-0.4558104723460421,-0.3685435840400311,-0.3937042397079426,-0.4457117016094133,-0.5509094828045802,-0.4026276723604864,-0.4008142753025529,-0.9095614165335744,-0.8568381043687808,-0.4070791965578928,-0.09023832691781224,-0.5258677899572086,-0.4190181821092212,-0.20854141400089035,-0.1231422403051061,-0.4354677463097994,-0.4568827159579694,-0.4676704201754566,-0.5835532116685971,-0.3457228865164286,-0.2673753449433573,-0.26186575252518823,-0.006442093842820504,3
15.6,24.3,5.325,5.75,15.05,26.9,6.4,7.225,1092.0,1444.0,342.0,385.0,954.0,1663.0,394.0,458.0,22.0,17.0,17.0,18.0,19.0,16.0,14.0,11.0,-0.7684585843267846,-0.6413376255465357,-0.6604395447767496,-0.3168043471314281,-0.41663024563556894,-0.4139829801713978,-0.3441044061285778,-0.0461461245595597,-0.3612214777101677,-0.2169538055450825,-0.33074291369722225,0.03891112763375026,-0.6376692328045449,-0.5272962817716591,-0.6662906823837895,-0.25375665382544405,-0.3690130781689455,-0.21091111732664425,-0.14903636730009034,-0.06742845283937204,-0.4548295671264478,-0.23271820411176214,-0.24490063233498305,-0.474542536412371,-0.5893771884579228,-0.2567933409396023,-0.2284164916076066,-0.4040066456741582,-0.5345471469269218,-0.20859867955545236,-0.16379971574129953,-0.15735067939124325,2
12.55,4.925,4.475,11.9,11.75,32.575,14.075,11.3,858.0,342.0,257.0,733.0,777.0,1986.0,926.0,660.0,15.0,21.0,15.0,21.0,21.0,16.0,21.0,16.0,-0.3049518861862881,-0.030539692891084488,-0.3779965027330404,-0.16689959543607907,-0.4381920479357674,0.03587468965412675,0.25514005027284303,-0.15670605157035505,-0.3124677107028363,-0.2790194201818284,-0.2523140022536229,-0.4026974199842257,-0.4051666194214762,-0.30850442024983193,-0.25395664842052096,-0.2566858590774144,-0.4859146343539602,-0.26533424206516115,-0.17210392234815708,0.103948770295265,-0.4283180541575015,-0.017463082232678458,-0.020427501539988485,-0.061178662287937585,-0.4275597685473805,-0.3050667600035459,-0.1242273652027486,-0.09318750901458847,-0.2414846738728566,-0.13387059961751646,-0.3737889454881958,0.024799527124096797,3
10.475,2.45,2.15,2.225,15.275,13.075,2.2,3.725,670.0,143.0,92.0,143.0,1017.0,808.0,137.0,240.0,18.0,14.0,12.0,9.0,20.0,21.0,17.0,19.0,-0.3711334972669218,-0.4065641234646757,-0.1537831021399065,-0.26260115135328016,-0.3653802728499193,-0.4778445941186877,-0.3215030236018132,-0.5009265583427237,0.15024646693724356,-0.0932157923802862,-0.16555891637302245,0.10344136989717127,-0.19141786100975453,-0.03660406164400221,0.0875137783069319,0.1883751026719193,-0.4076261165540028,-0.09574642515316092,0.1734370013953855,0.06517504592812907,-0.4804420098397284,-0.5620746270750906,-0.2910431469507097,-0.3865019082150088,-0.367094712026536,-0.3385410573438273,-0.3032195000969444,-0.030237256840920074,-0.2613248539990118,0.08515372390094872,-0.123739008900327,-0.14199496726936806,1
21.925,8.675,3.875,7.6,13.15,17.225,51.0,22.225,1521.0,575.0,253.0,492.0,844.0,984.0,3347.0,1384.0,21.0,21.0,15.0,14.0,15.0,12.0,18.0,17.0,-0.7108922158240063,-0.4521216977159113,-0.38330347127869296,-0.11051221801311037,-0.32969600531644666,-0.10979603401768523,0.01779541142115495,-0.2785390185135884,-0.13814572494068025,-0.13779687635186907,-0.4167310209332696,-0.13075788125570387,-0.38676326969364816,-0.3806086391536151,-0.33727105557061066,-0.3965695420632041,-0.4122808561350544,-0.199731800420943,-0.07009398703211166,-0.139429878638332,-0.08909052059075911,0.271376032397368,-0.2016983242446399,-0.3898780306211009,-0.6407271312428398,-0.26930641265786176,-0.2397832960412009,-0.2353074917964467,-0.31508865835399186,-0.0617264591749662,-0.05691767981229547,-0.1508848485262167,0
15.7,2.15,2.175,3.325,16.75,15.225,2.175,5.85,1065.0,122.0,112.0,198.0,1105.0,808.0,132.0,336.0,17.0,12.0,9.0,13.0,19.0,14.0,9.0,17.0,-0.5578236775091789,-0.340543193300034,-0.3486814495431388,-0.3718487357823169,-0.09860510232884637,-0.4301385632505316,-0.21402066183181226,-0.17487454288725635,-0.022829599378947952,-0.1556771674071517,-0.12946838012009088,-0.08154944127651285,-0.3435989525361206,-0.4384915461495383,-0.4668414877585209,-0.2392862236965793,-0.3223334514603268,-0.09739967525603754,-0.06537848639707934,-0.1458610934428273,-0.1386929099173699,-0.2685540427165723,-0.2671356810367394,-0.17864947705457387,-0.09725445163715356,0.00850693391270064,0.10126410812910544,-0.2680140277420185,0.009199195350284729,-0.0423878952218768,-0.16477654390210847,-0.14688430096097313,1
7.05,5.125,4.725,7.725,15.075,39.85,8.725,10.6,427.0,319.0,304.0,528.0,927.0,2630.0,589.0,642.0,15.0,19.0,15.0,17.0,18.0,16.0,22.0,20.0,-0.16523378423782814,0.11089288513296257,-0.04110910917540719,-0.5236422216866742,-0.3502645515456692,-0.3646095160702037,-0.09927701481836618,-0.2554546291209617,-0.3883129445680576,-0.282475227712375,-0.16563303083517972,-0.4056034903340979,-0.6552526256043031,-0.4611024084284046,-0.4268183220525614,-0.4532372094741367,-0.23401239238780835,-0.11139245375686804,-0.2459800006022225,0.024472012522071863,-0.3983923137109051,-0.3390355726135021,-0.18520757972396476,-0.240568210365709,-0.4852364689009069,-0.13917232181834738,-0.28583465415269105,-0.13521099206412396,-0.4202772940983559,-0.3467115894383589,-0.3272774631836924,-0.3069186305479832,3
9.85,4.8,4.475,4.325,27.625,31.5,2.85,8.175,636.0,288.0,267.0,239.0,1622.0,1893.0,181.0,556.0,17.0,15.0,13.0,12.0,15.0,14.0,16.0,19.0,-0.026310208148248457,-0.4785776429676425,0.03552469507836501,-0.21075110397985686,-0.5577029680495112,-0.5528411475567361,-0.42677554727135,-0.20802704234045788,-0.634456117980394,-0.7121259245529213,-0.6507314404794644,-0.6666412695960631,-0.5592723444041632,-0.6748034395824118,-0.6157314176115556,-0.5871635047038829,-0.7156369323379029,-0.7209413178796408,-0.7696053177671199,-0.5455825877830734,-0.6873349243626832,-0.7276838802531422,-0.7790949935848025,-0.6147378098715266,-0.3236837469219704,0.025343043501955438,-0.29461393843534395,-0.2416855060719008,-0.5906306320821787,-0.44477453123915,-0.08344389819154542,-0.18417421699140954,1
10.275,2.125,2.125,2.175,17.225,13.95,3.575,8.45,665.0,130.0,122.0,125.0,1227.0,802.0,200.0,521.0,17.0,18.0,12.0,12.0,22.0,14.0,14.0,14.0,-0.4022601456071442,-0.21411131793800675,-0.3795252599572224,-0.4097114450493183,-0.3490245570631481,-0.1432830761293752,-0.18964841449073291,-0.1998947239317848,-0.2587047139494824,-0.3767397278115475,-0.008978888317202463,-0.27951857131752456,-0.014469259158667409,-0.2902893170242637,-0.05263348642044429,-0.093755371456382,-0.6217947662876122,-0.07566675029093366,-0.006493492284451611,0.00449920550378282,-0.4645445009357981,-0.362399263458196,-0.4425580742297346,-0.2773679696012553,-0.11781706091738485,-0.1146910592746952,-0.3711540432535301,-0.17495354214029604,-0.3122993508341825,-0.256003449859475,-0.3290441819030203,-0.2793813952080763,1
9.525,1.9,2.275,5.8,7.225,11.9,40.575,17.75,672.0,99.0,140.0,380.0,430.0,810.0,2544.0,1146.0,21.0,8.0,14.0,16.0,20.0,22.0,20.0,20.0,-0.6866355636406026,-0.4510932194050238,-0.32227861316713263,-0.1034605925106671,-0.15290967353709886,-0.06923388781460926,-0.08973709156062458,-0.4757227017813986,-0.24065860629596586,0.12688075292867734,-0.13411933900096198,-0.4118663668038496,-0.4103590221981901,-0.08300476423192613,-0.27878267864149336,-0.13316622305096856,-0.5096845725924047,-0.41769991632031545,-0.3895386472770899,-0.3786687005234871,-0.7419439297623085,-0.5194293450640977,-0.4330980637959653,-0.3512385456277445,-0.5983860986530684,-0.6670603558125372,-0.2281713339894604,-0.2627247935096046,-0.482385296987908,-0.36672956735986667,0.04288382951283845,-0.11345096586176215,0
16.9,2.75,2.85,6.35,6.175,10.35,23.05,13.15,1182.0,175.0,171.0,421.0,432.0,690.0,1405.0,957.0,21.0,18.0,14.0,14.0,21.0,20.0,14.0,23.0,-0.5615034915085529,-0.394221774200668,-0.19409241416954448,-0.4927921566816277,-0.24852896687054785,-0.0033046910105870913,-0.2730399907705426,-0.4304029635685587,-0.35608056563545004,-0.2073124274617101,-0.4399750258668442,-0.21405164922473688,-0.5039232341774743,-0.17618241305453758,-0.36809883732434256,-0.37513900750782864,-0.8649456012601414,-0.6741703810637459,-0.5446721461135283,-0.20296578021492212,-0.5716426855190667,-0.29847825099594205,-0.18260177750169568,-0.2675972721569141,-0.419596601509302,-0.2494426813511128,-0.4716132494647418,-0.4874276938933669,-0.7515578936262746,-0.14699699996673146,-0.05557119238397989,-0.1054471002804113,0
10.25,3.375,3.175,4.95,7.65,11.475,36.15,11.9,726.0,189.0,187.0,274.0,484.0,711.0,2100.0,650.0,20.0,16.0,16.0,14.0,18.0,17.0,15.0,16.0,-0.7364647244925766,-0.5848648164106909,-0.39637662711328747,-0.3885819843218344,-0.3991810268347421,-0.3358166160056969,-0.3458481028907093,-0.2529318831535677,-0.4434250817698124,-0.3535487951248153,-0.2574170338054909,-0.253352434513161,-0.23776476488110185,-0.2989296084870411,-0.22712241306066866,-0.340257497318153,-0.5285310374583276,-0.4552552047133352,-0.40219909088114575,-0.367071533755974,-0.18334030364167067,-0.05343135927373359,-0.3132396821473481,-0.2352589529764548,-0.2803791458298227,-0.2994428242027698,-0.3076825695333312,-0.3289420360270429,0.031350313487351365,-0.4580912955471808,-0.0649427151677602,-0.27507268911423044,0
12.85,14.975,5.05,4.525,12.15,18.775,3.2,7.7,814.0,847.0,281.0,302.0,739.0,1279.0,206.0,527.0,15.0,14.0,15.0,15.0,13.0,18.0,14.0,17.0,-0.4105480160213841,-0.2251424759903291,-0.5046801628987503,-0.3896267188609808,-0.30801427844853624,-0.2441798321701596,-0.4003936841621679,-0.24995740516131634,-0.18533916792314176,-0.1323606077663804,-0.1931281884208888,-0.4279854949386639,-0.6678046282109303,-0.4459122061924545,-0.34699221336437763,-0.44238953611351506,-0.2850736800394649,-0.2530363130406281,-0.13827662611917035,-0.18377719526376404,-0.5453366262321021,-0.045623387967039464,-0.05151318757091235,-0.2571968813870368,-0.5672211546029781,-0.21880524262537146,-0.19550892657677832,-0.3052713071063224,-0.428233936464497,0.1661984857378496,0.0688109311876326,-0.1278302816115064,2
11.775,3.725,1.85,2.225,13.05,12.4,2.1,5.375,726.0,227.0,113.0,136.0,855.0,818.0,123.0,336.0,13.0,14.0,12.0,18.0,16.0,20.0,14.0,14.0,-0.26664753456487256,-0.2168874089455932,-0.2887698590927274,-0.05298317822739825,-0.520930074937296,-0.3252389341787296,-0.3282826068187813,-0.24482114310475656,-0.1281846742484691,-0.07958559958601066,-0.2664464965075944,-0.2565006839714977,-0.4676475870338205,-0.2178685442547206,-0.3928939772198736,-0.4077718344305244,-0.2994222432008564,-0.15689555068456748,-0.2492731332892565,-0.3940752398594968,-0.36494563047388734,-0.17595747904413864,-0.2986304578378988,-0.5281604456362947,-0.3930968796602036,-0.031535372538359974,-0.011087525065176755,0.03074590031898862,-0.3772026760605843,-0.26650709680626,-0.07920873765244872,-0.019499557933132444,1
11.7,2.75,2.4,4.35,9.0,8.375,37.275,12.3,732.0,167.0,156.0,280.0,611.0,468.0,2354.0,811.0,18.0,15.0,14.0,17.0,15.0,15.0,19.0,21.0,-0.7302765045560573,-0.6362986983562212,-0.5327684459796606,-0.2678535095031156,-0.30229197184658185,-0.2203374799640471,-0.022751307211740814,-0.4341558873359294,-0.31375176772680835,0.0387408526634208,0.11287042255608185,-0.3257847588705661,-0.601369230834964,-0.4164329707335167,-0.293923744456247,-0.22422021249643684,-0.7192790892451268,-0.4051842136071059,-0.05389471674137795,0.16061808952521328,0.10315878831293264,-0.006905767088877404,0.06516596856523772,-0.378471634593146,-0.6364982383809163,-0.4765828623088829,-0.5241859870937204,-0.4095132760322599,-0.5571922377563658,-0.4467634488120979,-0.23881892754153344,-0.2745333780433081,0
11.025,3.375,2.925,8.75,11.375,34.1,9.4,10.625,675.0,211.0,187.0,592.0,741.0,2181.0,549.0,587.0,18.0,13.0,18.0,22.0,19.0,20.0,18.0,12.0,-0.2700358079700895,-0.32263046073434176,-0.06768119994626533,-0.2620182319481589,-0.3154236932725185,-0.08760928278810645,-0.20007890875815845,-0.13849572311666328,-0.2943307280453116,-0.2402946140824542,-0.4575025190151031,0.053713208096628634,-0.4955205568756073,-0.24297476366872375,-0.37655875306392794,-0.3162241660567852,-0.3275570605143062,-0.3795649020694351,0.0825001415823974,-0.10465677091749308,-0.5248703920424499,-0.5051764933958968,-0.32162789236336675,-0.09594969933291894,-0.3754617096917735,-0.2826107044941352,-0.4662531903547778,-0.16762536910676104,-0.01356813778832167,-0.1180348369986474,0.02465080853587678,-0.20002069572190134,3
15.975,14.95,4.95,3.65,16.975,20.375,6.525,12.65,916.0,895.0,329.0,241.0,1003.0,1130.0,399.0,744.0,13.0,15.0,20.0,17.0,17.0,16.0,14.0,17.0,-0.062296224358914236,-0.2765666898088404,-0.13513317798354016,-0.0187120483005714,-0.2850377575329949,0.03549253455058062,0.07453049826834897,0.16011775284314927,-0.5950494836027229,-0.17190316672942488,-0.06376171329701452,-0.21085636376797887,-0.5000133866854573,-0.6630209808191542,-0.2049087063397996,-0.4209616899308997,-0.5000412150966247,-0.4601369050300425,-0.23763269595713185,-0.15632899560614372,-0.442265269729502,-0.3753745475756696,-0.4143944110940327,-0.2056422138075345,-0.2240440098123952,-0.3604520389097219,-0.01011795904205046,-0.3779109437615189,-0.424165444112003,-0.16764239987999652,-0.04143627037077652,-0.21577121074419575,2
12.75,2.35,2.375,2.925,15.2,11.675,2.325,6.95,873.0,127.0,141.0,184.0,945.0,687.0,154.0,464.0,19.0,9.0,14.0,14.0,17.0,16.0,15.0,18.0,-0.5012460345917039,-0.25910215531455216,-0.2338701781323804,-0.36915165233306907,-0.29575057059438786,-0.3526771668666953,-0.4577511662838962,-0.23600226890499285,-0.455638737679015,-0.37594867200218396,-0.3971692898602617,-0.0974720605726406,-0.27299456249069626,-0.3332608693573549,-0.17546648496159167,0.04883466068503051,-0.3659924052710353,-0.10158950052920347,0.0754581551332767,-0.02520969498987135,-0.3871984083019349,-0.1357357462990719,-0.3244598146293067,-0.3057413317857402,-0.4110212913983332,-0.0925649685437908,-0.2632688642092221,-0.18132269518051705,-0.43470124016679057,-0.10199703334357044,-0.2607721217483149,-0.23147898492807395,1
20.475,2.4,2.7,6.225,8.9,6.325,31.425,13.475,1451.0,150.0,182.0,378.0,565.0,402.0,2256.0,927.0,20.0,18.0,16.0,16.0,17.0,14.0,22.0,19.0,-0.9756075501926816,-0.8981690279973606,-0.4677084938402632,-0.2509745834703742,-0.3475380761927459,-0.1463462390648786,-0.26035852112812186,-0.4108265688319283,-0.3480811266097854,0.032388134446497206,-0.10705461705135376,-0.32847343436036697,-0.4014152023699368,-0.5875920370797317,-0.34797448333802883,-0.6181422531550099,-0.7917524573221825,-0.7098450626774405,-0.6348910696085611,-0.4565446317429217,-0.5655485808127142,-0.3220003181387028,-0.34955966044177217,-0.2260105215675631,-0.969166326330036,-0.696294091141007,-0.8076151219768382,-0.5522856885527054,-0.6387288427896409,-0.4764856058448996,-0.2719426612023625,-0.15739752036161592,0
15.775,2.15,2.15,5.375,8.15,6.975,32.525,13.2,1080.0,120.0,133.0,320.0,499.0,434.0,2154.0,837.0,17.0,16.0,14.0,14.0,16.0,19.0,20.0,16.0,-0.8376854470380372,-0.638377518033496,-0.5809723525557567,-0.28650380401498937,-0.2594494168999433,-0.10696766933466886,-0.06722728431151258,0.11126713213722396,-0.2147452685449484,-0.017718480826215997,-0.3221643511587624,-0.1561664276580658,-0.2788144025055362,-0.32009191766022577,-0.22215682338118925,-0.18094381309279864,-0.4388117672982809,-0.08770594093581152,-0.004637401327406869,-0.04986399937522471,-0.23082697026956545,-0.2937376533125949,-0.05346880913266671,-0.2759646207983051,-0.6771892669397105,-0.5224377951138632,-0.33388407359050404,-0.3196781377274918,-0.5894446361132719,-0.6780752305037729,-0.22923201908302945,-0.25375877138717834,0
13.525,2.675,2.95,6.95,11.675,13.25,31.275,14.65,802.0,142.0,162.0,413.0,786.0,853.0,1674.0,877.0,16.0,11.0,10.0,16.0,18.0,15.0,14.0,19.0,-0.4088084041568029,-0.524150767495252,-0.4366968514454244,-0.4561022438817458,-0.15502878614017113,-0.2426750081946843,-0.4052375724595473,-0.2094580350088696,-0.2940548622724704,-0.3393554592037736,-0.4994250306435422,-0.3840109133764322,-0.3113580405226357,-0.2664558553562704,-0.18941932155232846,-0.3969925097194829,-0.6739193085128563,-0.3596799796798656,-0.3737531128222077,-0.3321999867496873,-0.2526700625863537,-0.1266191060728279,-0.3033494176478593,-0.4118989400522194,-0.3389192185716685,-0.4289339506251045,-0.3912364730076311,-0.4943723825304394,-0.4174079369222468,-0.5298207023849006,-0.33042732330661784,-0.3868021200684633,0
11.45,2.975,2.075,2.4,14.65,18.55,2.075,6.3,780.0,171.0,123.0,153.0,921.0,1142.0,120.0,448.0,19.0,11.0,10.0,12.0,17.0,14.0,10.0,17.0,-0.6363085988382641,-0.4521721447198414,-0.5222841711969822,-0.43549877547766414,-0.4297891602386121,-0.2096236967947575,-0.4148176055616289,-0.3220813978430451,-0.2553796683366351,-0.19058840062308108,-0.3574088689663919,-0.08197616621653539,-0.34773811944613364,-0.0391024839100633,-0.08367951659304701,-0.19005416621179289,-0.5929254278735596,-0.3895851553272632,-0.15631601531440914,-0.08570180213708993,-0.535268827873687,-0.4619179697206009,-0.4606351838302623,-0.2915197564424636,-0.11255801993362062,0.020503251630932338,-0.185361834326791,-0.3110233185569942,-0.6681936450780167,-0.3391962867975097,0.04150630010910989,-0.07316351241895504,1
7.6,3.6,3.625,7.225,12.2,26.725,10.05,10.3,521.0,245.0,211.0,436.0,804.0,1546.0,668.0,707.0,18.0,15.0,15.0,14.0,17.0,18.0,17.0,25.0,-0.3787644864134479,-0.33259583180634633,-0.07941887982898009,-0.33475984960253424,-0.4379316246238888,-0.10000493419649162,-0.11924953963130115,-0.06033582387698285,-0.267927232403869,-0.10751034904166744,-0.1065934677563294,-0.13663094068247686,-0.3687584711055197,-0.13029626777827885,-0.22400060477763306,-0.21750145339194232,-0.30755528842678803,-0.20992755043749625,-0.2551802131474093,-0.24091652521115464,-0.2364215602419572,-0.17143418658860293,-0.2345860448520399,-0.1854777512029252,-0.4664365200872997,-0.17012273803898809,-0.3006292944940914,-0.15227213068338924,-0.4607026322559642,0.004323520071620809,-0.272611050620015,-0.4802719923963742,3
12.125,4.65,2.375,2.8,15.575,21.925,1.75,6.05,636.0,308.0,130.0,173.0,960.0,1366.0,98.0,356.0,11.0,21.0,13.0,13.0,22.0,19.0,9.0,17.0,-0.3333428911831362,-0.21900118953830744,-0.28402884179614474,-0.18392932932771894,-0.5022888141338196,-0.29031411326225004,-0.40830591924621423,-0.2940711712530726,-0.16097970038908835,-0.22813052539883644,-0.2860605776231155,-0.3540276029893213,-0.26800717184088035,-0.10619033332332914,-0.2903328780063947,-0.2505679373407025,-0.4390062340393407,-0.19906899494022226,-0.30243165425504825,-0.20727227642921384,-0.3050971290104369,-0.1288981345034429,-0.34735365459075546,-0.20855524855385665,-0.18400759639564554,-0.06734147824945269,-0.211977153990222,-0.3607285798197349,-0.28597260863989804,-0.5807708345877286,-0.2972834872123766,-0.3537810753837781,1
12.175,2.425,2.775,5.5,7.725,10.8,42.175,16.1,857.0,140.0,169.0,363.0,506.0,678.0,2764.0,1031.0,19.0,13.0,15.0,16.0,20.0,18.0,18.0,21.0,-0.7046332709980404,-0.5259035021364488,-0.4232982811782588,-0.4152076058821155,-0.21199134630727293,-0.2217165359435925,-0.15940511687334902,0.04130941395267503,-0.2207035717295402,-0.14748373408015122,-0.2688831711983315,0.03887585563317824,-0.5751855508042064,-0.453944072581171,-0.3815603556482885,-0.4707738149880682,-0.6469873665650381,-0.2761203371784608,-0.10365869347804388,-0.00886881734540132,-0.3283539905861038,-0.3035136672307329,-0.1821185034506358,-0.3924100717459677,-0.7030944239410798,-0.4655278865643884,-0.5698294409588092,-0.5046206711617129,-0.7715224066609081,-0.281595917253788,-0.17908272862447108,-0.1480953330850804,0
10.125,2.475,2.35,4.85,7.4,9.25,29.8,13.825,731.0,165.0,148.0,297.0,533.0,586.0,1843.0,993.0,19.0,20.0,16.0,11.0,25.0,15.0,13.0,19.0,-0.7381102960048586,-0.4439069695361724,-0.34119532653198764,-0.2419070446364572,-0.5874284247396271,-0.3976564109442442,-0.12343957014976525,-0.2974521186882801,-0.3714239856450473,-0.053191405450606494,-0.02900480457303593,-0.08580377626955676,-0.275441490216466,-0.2201522637678084,-0.22619207483984266,-0.27042428921523404,-0.7103205371877026,-0.2620561688304713,-0.350077355087282,-0.3412747118086649,-0.480776423371603,-0.1717839515244577,-0.1885122820900348,-0.2623786499240395,-0.5368219838098126,-0.4320750582490619,-0.5360508679061543,-0.455682521053504,-0.536733560219752,-0.4140327192864284,-0.16313868216800248,-0.1804821987294236,0
4.65,1.775,2.35,4.975,14.675,29.775,5.925,5.075,298.0,102.0,122.0,256.0,988.0,1853.0,362.0,300.0,16.0,12.0,13.0,15.0,19.0,16.0,16.0,18.0,-0.5152478236728589,-0.3079948339490343,-0.2837111516312629,-0.22228245257633167,0.08661476542635732,-0.16128408447173598,-0.293826725598352,0.09254571170176984,-0.04686049699209576,-0.3260005366466919,-0.4427226469571519,-0.034782120369671564,-0.24381767296717086,-0.6160867277276753,-0.27296603878501285,-0.4734868756773598,-0.8404310842578118,-0.5505596751399001,-0.406066303928966,-0.25432014116005724,-0.5356386924580219,-0.43293249297952696,-0.4463116380830152,-0.21055376168594409,-0.1967743712887592,-0.4540346367713657,-0.21919179856900292,-0.1704045149096146,-0.3302821007930833,-0.3542685323225453,-0.2966375680181285,-0.33848546803044965,3
9.425,5.15,3.975,9.675,14.675,35.525,9.1,12.575,604.0,342.0,237.0,585.0,932.0,2366.0,593.0,830.0,15.0,22.0,16.0,16.0,17.0,20.0,17.0,21.0,-0.3400114288720777,-0.1862867916291289,-0.106860880823783,-0.4696938764028733,-0.5837739151927609,-0.3699008764380161,-0.0632667592485242,-0.2367485393807593,-0.32207847711723525,-0.33198911821338045,-0.3319088189009993,-0.4412025442534167,-0.28567873775497143,-0.13392862044616816,-0.3546452283538465,-0.2601240269107561,-0.3993466403609957,-0.29240515923738936,-0.16183061978820282,-0.2873024758594321,-0.3726961013725433,-0.09809379968303668,-0.05768137918672943,-0.1543021102226664,-0.42381700668868666,-0.2362784775981189,-0.2513551555218548,-0.16140605468420724,-0.3402441193791285,-0.25015855699267,-0.029973848308169043,-0.3316226192540065,3
12.525,2.825,2.4,3.575,16.425,15.95,1.975,4.15,824.0,140.0,138.0,242.0,940.0,911.0,119.0,244.0,17.0,11.0,16.0,14.0,17.0,18.0,17.0,12.0,-0.3718512100727275,-0.3806819657178889,-0.28509834197733314,-0.3952719962943914,-0.0733485025342388,-0.4311041704028027,-0.1463701704020088,-0.4170750028672357,-0.3901842311891892,-0.1867859742546727,-0.18000505972733274,-0.345123861192294,-0.4957466179717551,-0.1543874147683315,-0.16814355851236554,-0.31134683589793083,-0.33145268913679754,-0.3498061060047893,-0.20413941653418094,-0.3461712334942072,-0.31731765901322034,-0.4057489866518638,-0.08446373019817939,-0.19996945468274585,-0.4811297745945768,-0.608034772649554,-0.3959877454230453,-0.40589408849714936,-0.2548876241649685,-0.18062088416881444,-0.2093285135391189,-0.3726208042554331,1
16.35,11.4,5.4,4.525,6.925,13.975,20.85,11.075,1139.0,781.0,334.0,273.0,456.0,970.0,1378.0,769.0,22.0,23.0,18.0,17.0,18.0,20.0,18.0,22.0,-0.7589774864205561,-0.6040417183105964,-0.3135887691073247,-0.3029486272690585,-0.7192949569446673,-0.4489608399932406,-0.3866923173827592,-0.1964807028143851,-0.4432466160195095,-0.4023073566336141,-0.2310343581631933,-0.15409633045777807,-0.3378805238750998,-0.19490849552267595,-0.13043181235252732,-0.320904181774052,-0.5337084360014254,-0.4265154399327034,-0.4333292773204758,-0.4659513847891865,-0.49396751655284493,-0.04638395055469037,-0.05353643210402249,-0.2590613156050069,-0.5105708786586975,-0.11943638124693745,-0.3961490375888544,-0.3974089019453768,-0.5033469725488527,-0.02557333758292307,0.041480744569238094,-0.1982699451371628,0
5.275,1.7,2.075,3.625,11.55,22.0,4.175,6.55,335.0,78.0,94.0,192.0,762.0,1398.0,264.0,415.0,22.0,12.0,5.0,14.0,18.0,16.0,18.0,19.0,-0.32414651851087606,0.13904661987965314,0.01197062823285782,-0.22782792248500486,0.2720736996844681,-0.21457299219968254,0.04409279546482185,-0.2254581845117669,0.3630736023593909,-0.3561688034940221,0.03946773901116199,-0.17588173443515195,0.09972844147321012,-0.08335027210336046,0.15313189723229267,-0.4224731721354114,-0.5270668740472326,-0.15953727232280035,0.03606763901189107,-0.04564433781237332,-0.30875124607870386,-0.4037591823922697,-0.1219996014850525,-0.2793096940989577,-0.30392368366247585,-0.2893584759006687,0.06097237195246636,-0.20921044852262488,-0.3202265013840339,-0.22062993974988104,0.1026290803224104,-0.2057353894882372,3
17.05,3.725,3.25,4.2,19.45,26.075,3.3,6.975,1047.0,225.0,213.0,290.0,1182.0,1565.0,208.0,397.0,20.0,15.0,15.0,23.0,16.0,16.0,18.0,17.0,-0.5341786820999912,-0.13812309943715095,-0.11933371835519332,-0.18037175112790044,-0.20647853073547048,-0.2112119780708091,0.02357979884514908,-0.22890833610848954,-0.5037577374497614,-0.4020997650782384,-0.3733139492547676,-0.2873790994536393,-0.4918688746878989,-0.1810526830998325,-0.1790528548621928,-0.15660045685129015,-0.21629766155187105,-0.1698952534701497,-0.2920764803286117,-0.1576780538254741,-0.5401716114139923,-0.6040073090552414,-0.4264905579880531,-0.2684340628866949,-0.39938957228105104,-0.33076987710537725,-0.00043133101525654036,0.04394092856287194,-0.09849810045952358,0.06836756091006398,-0.1829220695754896,-0.07322513966289222,1
9.775,11.45,4.65,5.05,15.6,31.45,10.75,12.675,655.0,700.0,268.0,283.0,996.0,1991.0,682.0,843.0,21.0,22.0,19.0,17.0,16.0,19.0,17.0,21.0,-0.3832964202685572,-0.2416572605949009,0.13358901201860168,-0.34139114493863626,-0.4702350001134676,-0.1675226873906118,-0.28987523221145944,-0.3358884464745513,-0.1549485604207421,-0.23932356624849704,-0.12005925727614225,-0.5297826977254589,-0.3104722745432813,-0.3019253113375411,-0.24447666971075285,-0.341260201544498,-0.5372803979930809,-0.5343883652849749,-0.3712411003360684,-0.2486359275069251,-0.4282223017826625,-0.5059390054339179,-0.07138995005738273,-0.2344561708911257,-0.4937451698497947,-0.3627024071666245,-0.0882809922026192,-0.14464697172355034,-0.36630189466791147,-0.11628192718399695,0.031083912372201625,-0.20193740529863047,2
8.55,12.725,4.1,3.5,11.55,15.525,3.95,11.125,536.0,847.0,286.0,226.0,721.0,1051.0,242.0,722.0,15.0,20.0,19.0,12.0,20.0,18.0,16.0,24.0,-0.08936397844982377,0.19707426706094905,0.0911977489302736,-0.1133795381908444,-0.6694476106937539,-0.4383690317897744,-0.10185640854406236,-0.1574699383118014,-0.5747004416249543,-0.1069200062532925,-0.02511414902942304,-0.20221256269871227,-0.32364353200132395,-0.29639107837259554,-0.2281347466122117,-0.4499891385165144,-0.4004032653932551,-0.2738497047510601,-0.11156268217889917,-0.2531358170532884,-0.3407418450836764,-0.0805820526650584,-0.21658405294733152,-0.2907798269027012,-0.4992018939964626,-0.38196298242341614,-0.366694143557581,-0.36081615901055936,-0.4919404113289124,-0.2274177298528306,-0.15696315929041388,-0.08102537380748089,2
16.45,7.2,5.35,7.5,9.225,13.025,39.575,11.825,1018.0,478.0,337.0,514.0,639.0,603.0,2275.0,764.0,19.0,19.0,15.0,20.0,19.0,12.0,16.0,17.0,-0.4091633905983811,-0.4638430478029567,-0.2846641134721696,-0.3686596062743635,-0.09234656266878098,-0.246010128605128,0.2612711469151325,-0.2094318618399441,-0.2305371999312509,-0.15859814847432482,-0.24589306546891498,-0.19034573289740694,-0.6368047428242165,-0.332509793770947,-0.3355873986028248,-0.28774431833870795,-0.6142656968644492,-0.3480053312151323,-0.4240866104713092,-0.3755719488311037,0.189692133006409,-0.12236985068947345,-0.2714890374068645,-0.05310189055017638,-0.2435136748005289,-0.12935639605908833,-0.36712666895296975,-0.1666579306993512,-0.3997455579400535,-0.17915712432799175,-0.2932214757809414,-0.2558772955827894,0
6.875,2.025,2.6,3.0,13.25,13.575,1.6,4.025,423.0,108.0,145.0,184.0,766.0,728.0,86.0,245.0,17.0,10.0,14.0,19.0,16.0,14.0,10.0,16.0,-0.34632587911572593,-0.32202238635496944,-0.29868872003248026,-0.044980000620946564,-0.04972486143543979,-0.20930768817924045,-0.009026265056504546,-0.1913750012533968,-0.3815449424811952,-0.31729135541366205,-0.5821942511967664,-0.17625729830693534,-0.4124710787588067,-0.20952216240870328,-0.6251583590269595,-0.16294584681057686,-0.29776934477061084,-0.1547906966934566,-0.3885915489011922,-0.3088986200988668,-0.181518679344538,-0.2516329753849924,-0.4285114435655296,-0.1046105257447285,0.00027298862126222,-0.0057235512307173535,0.02378260423101798,0.19781202093532585,-0.3182738536456736,-0.26965260590418,-0.1469058767024999,-0.23775329624672645,1
15.3,18.35,7.9,10.525,13.25,19.35,48.8,17.35,1068.0,1129.0,525.0,698.0,834.0,1213.0,2734.0,1229.0,19.0,16.0,19.0,17.0,22.0,18.0,18.0,21.0,-0.7546430332450617,-0.4942292443380218,-0.3542649005629652,-0.18941760905056407,-0.1383778247205305,-0.16243469909109556,0.23176357772793865,-0.004861823540549736,-0.532834941465772,-0.11313390877947095,0.13945839703723573,0.10980356072206518,-0.4212866469640947,-0.29539635304266715,-0.2893855884830959,-0.3148627679189096,-0.6693374154776246,-0.4159229710449061,-0.4070359513473133,-0.18426330371077973,-0.20845514576748134,-0.17314510507895509,-0.2379672588358045,-0.25285450978771623,-0.17605806037652544,-0.7088107645024814,-0.035297161289315884,-0.3858585874493807,-0.6296414536111279,-0.36153739295870063,-0.1099766634128252,0.05263611091258786,0
6.925,2.05,2.025,2.9,15.525,31.775,6.3,9.375,449.0,108.0,118.0,193.0,1021.0,2050.0,406.0,641.0,19.0,14.0,10.0,16.0,19.0,19.0,18.0,21.0,-0.30758362733968264,-0.12983026705935227,-0.044104443653554,-0.13954283485974622,-0.26196080136636873,-0.6465343024205032,-0.23614927090461704,-0.4782952439109672,-0.16028625731361013,-0.41330464907137104,0.04555521296599261,-0.3277597961871332,-0.4976270554089176,-0.4897183176258981,-0.2305255638585003,-0.4134021381782677,-0.5966612609147858,-0.3045271464939737,-0.394612465570117,-0.4956538921757671,-0.5952241096786233,-0.4371836959386203,-0.26901172901915466,-0.28127591641758115,-0.3209423239442959,-0.444490392548798,-0.034070542822477866,-0.4715299334287826,-0.5462184121689453,-0.12309946910360528,0.21693854918244992,-0.10568053490144802,3
8.8,2.45,1.9,2.325,16.9,14.0,1.95,5.075,568.0,164.0,103.0,145.0,1147.0,933.0,127.0,363.0,14.0,14.0,14.0,15.0,19.0,19.0,12.0,21.0,-0.4030603871447605,-0.3197028654193509,-0.06521329987654888,-0.001222532507598596,-0.4989215421194384,-0.5118844417301163,-0.4631620283865712,-0.29442872335714826,-0.4845234511773428,-0.4968156911637642,-0.48883500290788895,-0.030581291567315008,-0.3477984118726504,-0.16661194702366952,-0.12604800383424858,-0.2250418404793106,-0.8423405827676294,-0.478246094192556,-0.13606810437223948,-0.02872819621272267,-0.7720497691973731,-0.7924521195307032,-0.4873384284243418,-0.28211871579431297,-0.2377876221179037,-0.15897175060132068,-0.04421888514958861,-0.07433507999240138,-0.3947803905688903,0.09806940713374232,-0.13154023432241885,-0.4124183246212928,1
7.05,2.95,2.45,2.45,7.625,25.5,6.525,7.15,455.0,168.0,135.0,142.0,513.0,1550.0,377.0,400.0,15.0,17.0,12.0,16.0,18.0,16.0,17.0,15.0,-0.5070072168588998,-0.3903259720801312,0.1042684785860572,0.024317756043820558,-0.18424934373652185,-0.1302858694700615,0.04280887784451086,-0.1124340819007857,-0.3725577131769832,-0.3625559969286269,-0.3369050080086686,-0.15513677743858553,-0.3298179013206099,-0.3703434505349539,-0.13640711869286518,-0.03346592049465878,-0.3040604241642349,-0.11361633979846213,0.10715244284580708,-0.07607194331026616,-0.3045213979822569,-0.07120079558733672,0.13405096414329154,-0.15611659554721452,-0.2321972819288916,-0.4282590251084044,-0.2263314020639571,-0.2492010051107223,0.1044135438255738,-0.4701162765516967,0.10008716662581718,-0.09441772384306904,3
9.35,11.65,4.825,4.0,13.4,22.725,7.6,8.975,605.0,671.0,300.0,223.0,753.0,1519.0,478.0,590.0,20.0,14.0,18.0,12.0,16.0,19.0,19.0,21.0,-0.3572597015146226,-0.2071222935462964,-0.11264590085362974,-0.16503735968186592,-0.12473865068279955,-0.29603413967563097,-0.2451402727447936,0.014673035391098238,-0.6572667343739181,-0.6282623941176242,-0.4603742978255591,-0.0561857739430425,-0.33554666134035344,-0.44806405961817697,-0.3260213850883245,-0.12521445760430522,-0.32965026097263594,-0.3966756042304319,-0.09092248958438293,0.07877281854760733,-0.5314541841025562,-0.33263581345495474,-0.2737771221476639,-0.39969700314936746,-0.4449311466777481,-0.1655100778254286,-0.2892439141067614,-0.4723326968937828,-0.6307502642973595,-0.3853691631220659,-0.4012592790154165,-0.4077212447835224,2
16.225,2.625,2.125,3.075,18.8,13.975,2.075,6.775,1037.0,126.0,115.0,182.0,1276.0,942.0,116.0,426.0,17.0,14.0,9.0,15.0,20.0,20.0,14.0,18.0,-0.2950204302229829,-0.1555773963189053,-0.3812169605980488,-0.22685406418888066,0.16745471752299326,-0.2918671827618972,-0.20511301850662594,0.10100690774778867,-0.1866565074585561,-0.4041503328963708,-0.2711671129476184,-0.1008064429240744,-0.02792425588326641,-0.08651040894961841,-0.26118385796573,-0.017619934247960548,-0.4720727897435637,-0.2275844754573223,0.1535013634860887,-0.03739722315044399,-0.3625760846205619,-0.2886879797851056,-0.05547605001769144,-0.15262010033764936,-0.19706220608287436,0.1484100700023257,-0.035573885236220536,-0.21623813676774475,-0.2478353290795572,-0.057795628169459635,-0.20324910812103675,-0.4440517885005656,1
15.35,8.15,4.15,5.85,7.225,12.8,29.775,9.525,1104.0,487.0,249.0,350.0,522.0,744.0,1879.0,611.0,17.0,11.0,12.0,13.0,23.0,20.0,19.0,19.0,-0.8101243580953987,-0.6261444368174529,-0.6054247760812693,-0.33342255887610944,-0.3300048934322539,-0.039335934461809635,-0.5905001294825584,-0.3344457205985119,-0.3375674160017342,-0.2399622859055247,-0.2573115983344886,-0.21732863097700292,-0.6701267685969036,-0.4907263695851219,-0.372270929968706,-0.4729704545329493,-0.8726333015974176,-0.6304509461378486,-0.4891428141072472,-0.2868482054865575,-0.19144308233081905,-0.5341747736798744,-0.0718262742268111,-0.4093408474276589,-0.5160519322765519,-0.4387796955286756,-0.5367046027543378,-0.4227406537448872,-0.6949713368468046,-0.5184271844277528,-0.6598790884980432,-0.3796745743647839,0
7.95,3.925,3.5,8.55,13.7,36.375,9.925,10.2,508.0,231.0,214.0,502.0,922.0,2267.0,574.0,654.0,16.0,18.0,14.0,14.0,20.0,15.0,15.0,18.0,-0.30475531233871656,-0.2217766991940619,-0.1873360036603596,-0.3018029974824871,-0.2914834543012074,-0.2296443016706155,-0.07070868185063063,-0.3342599626740355,-0.42216108968811494,-0.5928781784899487,-0.3593781786899483,-0.3051989335552727,-0.4225643734549929,-0.5751892747783489,-0.3951166805288287,-0.4806966519888529,-0.6741416927280125,-0.3882442897635789,-0.36489351918455065,-0.08256643963715304,-0.3988950038198108,-0.2540130541846826,-0.3318495899355916,-0.3647347063516414,-0.17663413746433532,-0.20367370839665888,0.11475138390503928,-0.2697609594210232,-0.30265578174167873,-0.020390640076673943,-0.05700428647793297,-0.08918116046192344,3
11.85,2.85,2.55,3.425,17.275,16.725,1.95,5.65,827.0,146.0,120.0,193.0,1069.0,868.0,127.0,368.0,17.0,10.0,11.0,13.0,16.0,13.0,16.0,15.0,-0.6209632438767881,-0.2806408207811999,-0.3123500338968546,-0.2442102822379992,-0.3276130884409544,-0.5678704285136382,-0.2713011368668671,-0.5218730188045205,-0.10443368687057976,-0.4601009226500061,-0.2550516129230082,-0.3703692649073516,-0.14893920580823725,-0.3173049080035128,-0.18038918865711345,-0.5808717551359547,-0.4705541891169865,-0.5625371405072043,-0.17617421975361122,-0.16506082716651066,-0.18069355376203108,-0.5490152653261812,-0.2679078105536213,-0.3856361308493631,-0.4930944352193474,-0.3631151020703248,-0.22622992624594396,-0.4503175247825255,-0.2900869702735786,-0.09598691119654673,-0.2921597423182335,-0.18750294867532066,1
32.75,4.75,4.875,10.125,12.225,20.05,47.25,32.1,2188.0,302.0,314.0,653.0,825.0,1238.0,2901.0,2153.0,21.0,15.0,18.0,15.0,15.0,15.0,19.0,19.0,-0.6970555185049758,-0.6481792025763304,-0.33745111445069503,-0.3926416315599909,-0.3513631544777324,-0.2624739603373329,-0.1708938906851675,0.00228774645288432,-0.3779782407453711,0.0936646140415038,0.045520226722027775,-0.14694872652525684,-0.6054778571464249,-0.3825201474300088,-0.4176986675342049,-0.3399269005026615,-0.4903398873024088,-0.3739846163349693,-0.4032112044812668,-0.5097794820387654,-0.4491922799529649,-0.15826020322643422,-0.4044514948355096,-0.4696669790238764,-0.449106037188224,-0.288643934273379,-0.20264765180322825,-0.2414416222203647,-0.6507163964719117,-0.30080836259986354,-0.09886250183817212,-0.0067344499635730954,0
9.875,15.625,4.175,4.95,10.675,17.25,4.0,12.2,663.0,1022.0,188.0,343.0,617.0,1105.0,243.0,787.0,21.0,19.0,9.0,20.0,17.0,17.0,14.0,19.0,-0.5238243978480787,-0.3128251578156018,0.08756355041905313,-0.06007819843341651,-0.3959038300072243,-0.11645349804254752,-0.12581624245698916,-0.4186922983927717,0.07657788070418496,0.03714832754611518,-0.010041596075576914,-0.0560235384733298,-0.5172164803800291,-0.12092491813191122,0.09215770496235473,-0.15759423351838114,-0.2981160724280707,-0.5940996163374234,-0.18848898570552947,-0.3309046118958985,-0.584787185215116,-0.2638764537315524,-0.33570467344643884,-0.5061318874001154,-0.43583416629897576,-0.2439906736718773,-0.41438195281489504,-0.472756243379782,-0.4670496629437061,-0.2563558602352129,-0.21890259113255173,-0.30263063819568103,2
15.975,12.55,6.175,4.775,15.1,22.075,8.375,11.925,996.0,783.0,391.0,266.0,950.0,1375.0,573.0,744.0,17.0,19.0,17.0,13.0,20.0,18.0,21.0,17.0,-0.3583186207291209,-0.21156909206809515,-0.3093197612162729,-0.08898325375732942,-0.17724332950210267,-0.199179799314924,-0.07304808056739615,0.038333788420480436,-0.21332591902274264,-0.0965530680280804,-0.1543403479052173,0.35437716818740755,-0.07481790950150004,-0.2066121638109428,-0.1985084396253584,-0.2907542586527637,-0.2331774420575312,-0.11488044071042995,0.024936848086004854,-0.3984563598422549,-0.4360900324491846,-0.21470791576839526,-0.3885189397896037,-0.1576261222929536,-0.7927382805118609,-0.486302959542946,-0.2667300162651258,-0.12225559376399925,-0.3105632529003233,-0.03836116459477101,0.1362157441151201,-0.15181943825148864,2
12.2,2.175,2.0,2.8,22.25,12.95,1.675,4.35,729.0,124.0,127.0,187.0,1500.0,909.0,83.0,248.0,16.0,9.0,11.0,16.0,20.0,18.0,12.0,15.0,-0.3769510568865975,-0.4558684581619736,-0.2995602900485964,-0.2766411915658418,-0.3411576793182829,-0.050584370520729525,-0.1523721135026478,-0.4288213870429576,-0.5628556750238102,-0.22069306018802684,-0.27993737969518795,-0.44766954009611054,-0.6873189750679257,-0.6106691969451743,-0.24564115135534825,-0.4263003260782108,-0.6110630396857598,-0.6309673850037198,-0.2328278690142986,-0.34982987671927523,-0.4680945256909818,-0.16936963618743586,-0.2589739903959655,-0.38302078778698495,-0.1163574058496387,-0.21950769944007065,-0.1627587190353612,-0.04117524227581368,-0.16601117617774264,-0.10936247486457053,-0.3663044018364813,-0.3953380058264493,1
6.625,2.3,2.0,2.8,15.65,27.7,6.375,7.1,412.0,140.0,108.0,190.0,1092.0,1817.0,394.0,464.0,14.0,16.0,13.0,17.0,19.0,19.0,13.0,20.0,-0.15605529165142712,0.028258452510929056,0.03926377490293394,-0.028057381123841096,-0.11518127003206552,-0.09666917278214493,0.32287384161352384,0.1576571435670279,-0.014176672932852913,-0.23056976543451,0.12303516413685228,-0.1851300203891038,-0.2996325556800725,0.25072855285525114,0.03112488911601975,-0.4468625917018688,-0.5177721445556601,-0.2432238695462443,-0.14324245012077202,-0.3105304409096237,-0.39954273373307203,-0.24875494492695116,-0.05911121500200159,-0.3082044633521185,-0.5492122493879246,-0.4528400389838732,-0.29350628520449545,-0.13596137400799624,-0.5394141552751202,-0.3631566260555773,-0.16375884367977914,-0.2832853687152237,3
3.625,8.275,3.05,3.25,9.425,11.175,2.45,3.45,241.0,486.0,182.0,204.0,644.0,697.0,142.0,212.0,14.0,13.0,16.0,14.0,19.0,15.0,13.0,10.0,-0.258276457282484,-0.030219297176639338,-0.0030032939581082435,-0.3027116867937158,-0.3427280121360173,-0.34340130042917233,-0.2840021298183621,-0.3843745809207531,-0.3624415780289781,-0.2998384334734504,-0.12058502052678713,-0.2994595770553842,-0.3873416211976571,-0.4371798279117043,-0.2507290952747285,-0.2679162874894138,-0.4906588499319178,-0.2623713096983133,-0.16094556807279242,-0.18034594149901173,-0.12977653687106178,-0.2453407610441637,-0.2060391459470452,0.027712589131865955,-0.4298342435586407,-0.3608274420944769,-0.34883580226892696,-0.04581081433572879,-0.6781973603811761,-0.6152180002810341,-0.7567355300831348,-0.2886959559382833,2
8.175,12.6,5.475,3.975,14.3,29.675,10.05,9.2,565.0,894.0,353.0,245.0,1053.0,1925.0,634.0,549.0,22.0,17.0,17.0,19.0,22.0,18.0,15.0,19.0,-0.554365880555641,0.055002544687619434,0.3254074998679797,0.1413960248100926,-0.8170569665564031,-0.3567772821003796,-0.4304812027688202,-0.3034232072325142,-0.3203473822215212,-0.2129505443316372,-0.2244193193229647,0.22481471206139605,-0.4076284902545734,-0.4093800124197839,-0.3509933909555883,-0.2478229389894344,-0.5627476741996205,-0.1681509192048002,-0.020720368137682927,-0.0033223493750797035,-0.6036945340549146,-0.44937431336207934,0.018290703902474156,-0.11062735546992496,-0.3885593470068561,-0.21522511747439654,-0.022156656051563316,-0.1237233617994119,-0.3468735134851085,-0.08491581862786564,-0.08429557510026826,-0.1964342968783896,2
10.4,18.625,4.2,3.825,8.725,20.7,9.4,9.25,670.0,1142.0,273.0,231.0,584.0,1371.0,571.0,568.0,15.0,19.0,14.0,15.0,16.0,16.0,17.0,21.0,-0.1989871917204908,0.03146491712627642,0.001995655477943257,-0.27577388472106257,-0.3856752652837695,-0.2491140850473257,0.024588487198841755,-0.2013675528517808,-0.2968460101141661,-0.1009580314412916,-0.06307423749678051,0.11167412701901204,-0.16326355026730352,-0.1404955183361615,-0.2319975860574261,-0.020527713265308837,-0.3767271013690386,-0.16009709097665184,-0.6163556841903765,-0.25242593845887723,-0.5477078580345986,-0.6688169846738398,-0.27886693686310715,-0.35953130917019765,-0.13912555405680546,-0.2551924256341637,-0.12562624055124413,-0.44963178560436334,-0.502996628466304,-0.3466295234860641,-0.3277973520583632,-0.18726594958901366,2
22.275,17.675,4.075,4.125,17.35,23.425,7.7,9.375,1359.0,996.0,239.0,225.0,1138.0,1550.0,453.0,515.0,18.0,12.0,13.0,13.0,19.0,20.0,15.0,14.0,-0.3896944297361465,-0.4650855164661537,-0.2345480883356425,-0.4517102894244461,-0.09119632314442196,-0.41285121308550826,-0.13794695553321026,-0.24812076660421395,-0.17957413429512747,-0.2789214365752025,-0.10443416589285794,-0.17626650176297692,-0.30793319587908463,-0.20919842529381485,-0.32419228783532283,-0.3191254692426062,-0.6275535325403971,-0.3365811956010846,-0.01140404697329709,-0.09282847683849428,-0.6681034898174704,-0.4261384835414748,-0.05627510661674684,0.09066482738348254,-0.4061099931440684,-0.1918356036901276,-0.21987332932952025,-0.1407346361335024,-0.4257093894307332,-0.15390864130844567,-0.4009676440347825,-0.2706850818351172,2
11.7,4.6,2.725,2.95,14.975,21.15,2.375,7.575,720.0,301.0,151.0,180.0,1027.0,1440.0,139.0,515.0,17.0,15.0,16.0,15.0,21.0,21.0,14.0,17.0,-0.19307753403328845,-0.3210141593063547,-0.1355751829594621,-0.22423936201949626,-0.5230347036922546,-0.060750634461104215,-0.45257894673633203,-0.3521677576139619,-0.3772681416778969,0.11271931622090316,-0.15729022377290905,-0.36869085194265133,-0.6474894515283074,-0.4419416608944999,-0.3131203101363089,-0.276012072347877,-0.35576265049905104,-0.18255827108185368,0.0932630977786232,0.06480878778388498,-0.4967541528574558,-0.33743840006127995,-0.10226325904232966,-0.08001448860654872,-0.3508395916982048,-0.3525462939661714,-0.07576668773797443,-0.38126250134356265,-0.6576914051248733,-0.5562414139758363,-0.35348762829691915,-0.262485526984673,1
5.35,2.525,3.125,3.4,15.075,31.325,5.975,6.85,338.0,157.0,185.0,209.0,929.0,1797.0,375.0,432.0,15.0,16.0,19.0,17.0,17.0,15.0,14.0,16.0,-0.4371470873515,-0.22838465702591024,-0.08276302950059193,-0.22661993533767755,-0.4031245604694304,0.01802775110463365,-0.21359439264562194,-0.2495749612882013,-0.5568052229122117,-0.28680142687251464,-0.5874517392222232,-0.3771097464833336,-0.22165633053236486,-0.3237329633517513,-0.04352138453213402,-0.14298540226739798,-0.6956267966996011,-0.4052945618651232,0.056104465712138916,0.16661699891028933,-0.38656415901924,-0.3848576561079002,-0.21451922755040986,-0.065468944612859,-0.34885716914483555,-0.4213311249321778,-0.2770297310273754,-0.3643402659197423,-0.6932268724897229,-0.4229779522124546,-0.3630049489330207,-0.22786293126070595,3
19.5,18.8,6.025,5.7,16.125,28.3,7.225,10.6,1252.0,1354.0,382.0,329.0,1060.0,1732.0,466.0,680.0,19.0,19.0,20.0,15.0,20.0,22.0,13.0,12.0,-0.4754934833070304,-0.2400109807224776,-0.252390274683903,-0.2550055412647141,-0.6645322686487902,-0.16214902226573727,0.16141586287771126,0.10036099115657568,-0.5031835616614092,-0.2647641305901137,-0.3382637086865283,-0.2328543339977909,-0.15120492157995846,-0.13379711056162338,-0.11627671884975695,-0.4336896818461885,-0.5572876858440499,-0.3312877236528345,-0.37599275896387657,-0.22759331196965985,-0.33320811005416484,0.09210037459953832,-0.10905428964472458,-0.3352223003039585,-0.14894749508145225,0.08055753926374709,-0.2102343918233895,0.2344935027074032,-0.4718954442733242,-0.2724444974898377,-0.19236510975378068,-0.3455080388320874,2
6.7,1.775,2.0,2.75,12.65,25.5,5.125,7.75,399.0,120.0,117.0,166.0,803.0,1636.0,320.0,471.0,20.0,18.0,14.0,16.0,17.0,19.0,22.0,14.0,-0.14734908754548914,-0.19206767570813255,0.16066332742404452,-0.28315356130470365,-0.25373041108506866,0.4117849328707829,-0.17662273940316944,-0.2909762212727629,-0.2153627459208885,0.1891474674735361,-0.11912984495301406,-0.34176285488091634,-0.39719761229673206,-0.21455628823571615,-0.16611643532285522,-0.30998573238810795,-0.5811955304998874,-0.34758216615775744,-0.3681937348215157,-0.3793053186218561,-0.6377279911979317,-0.28030707281161177,-0.2875530125405568,-0.3034385852741183,-0.5720232055070663,-0.2331694177880985,-0.3065380571921289,-0.21413866384031552,-0.2669329469818145,-0.23192689754102824,-0.2644852900644803,-0.10675528458232493,3
8.1,2.975,3.0,3.35,13.925,37.625,9.2,6.275,549.0,164.0,171.0,200.0,882.0,2394.0,588.0,399.0,20.0,16.0,13.0,12.0,20.0,16.0,20.0,19.0,-0.6484634638553093,-0.0868399064421666,0.05426973729872527,-0.06475519412924505,-0.14410342284469893,-0.04081953730339299,-0.2427111016993509,-0.15843741493982288,-0.09494393514467224,0.017367276462582362,-0.16791337851412114,-0.20493773310112973,-0.16446293822829153,0.10539373541097677,-0.09499838109327888,-0.32796919247411943,-0.5377563280925437,-0.3645602614936045,-0.02133503002745701,-0.13766055614236328,-0.3859271556282512,-0.15383847332336656,-0.2800812444813544,-0.3027218396989133,-0.3624597617842219,-0.1552886571455308,-0.3194109953515901,-0.19756356738049646,-0.4009827619362655,-0.04124846018279127,-0.16979802261743754,-0.20283272079814155,3
