0,1,2,3,4,5,6,7,8,9,10,11,12,13,14,15,16,17,18,19,20,21,22,23,24,25,26,27,28,29,30,31,32,33,34,35,36,37,38,39,40,41,42,43,44,45,46,47,48,49,50,51,52,53,54,55,Gesture
11.95,3.4,2.6,2.5,12.7,16.05,2.45,5.8,775.0,186.0,156.0,153.0,733.0,1035.0,141.0,386.0,22.0,13.0,18.0,16.0,16.0,15.0,11.0,19.0,-0.6517756455768547,-0.3598661302048792,-0.4101669218657659,-0.3784158822372075,-0.3264556103627258,-0.3919520464392215,-0.32416139821496986,-0.47236402234362573,-0.23066883130538082,-0.21603417213851211,-0.12819774988012153,-0.38052302762440476,-0.6757493428906924,-0.5416796786918515,-0.3962038191091377,-0.26578885326141427,-0.37168553378736885,-0.49057819362425503,-0.3930747778605289,-0.3284886017543795,-0.5157633806362802,-0.585798847694749,-0.4246559104782775,-0.4345830752170629,-0.18964318810785913,-0.0953632949675111,-0.2768389915188065,-0.15278827377433804,-0.5087040708922406,-0.32993340291839124,-0.36612936196918705,-0.23673013272418902,1
11.1,3.225,2.225,2.075,15.2,21.975,2.35,6.975,720.0,193.0,151.0,127.0,1098.0,1503.0,132.0,461.0,17.0,16.0,18.0,16.0,21.0,17.0,8.0,18.0,-0.49949763985687967,-0.4016618039302466,-0.24626666934111746,-0.19638761887374098,-0.26383104138861885,-0.0880991894388169,0.02009965518566848,-0.19917074648943486,-0.6404368899636519,-0.3443222606478591,-0.12732044878917165,-0.025244211180925877,-0.2776029459045888,-0.06959674129581853,-0.04858295163067111,-0.08732984479530911,-0.6468427244924654,-0.06132046157570522,-0.17577839222694513,-0.22470539558374597,-0.5405691469942975,-0.235780481169845,-0.09008627967445844,0.05519266587287575,-0.06574989067243364,0.25001940147178026,-0.1569151961355243,-0.18320390614487841,-0.555757344417682,-0.3486100193653926,-0.3666905737050756,-0.3011233061228376,1
12.425,2.875,2.475,2.5,14.95,24.425,2.4,5.7,720.0,174.0,144.0,160.0,982.0,1383.0,148.0,330.0,12.0,15.0,12.0,14.0,15.0,15.0,17.0,16.0,-0.2885147321465388,-0.34358123996139034,-0.23441070522958293,-0.22233055175454022,-0.3807453898736336,-0.2329996881884562,-0.2363421018512218,-0.4011869726555385,-0.4943690386710003,-0.49131420571979806,-0.5310555019265153,-0.16783508701626343,-0.39997034175309065,-0.13277321361313288,-0.09849343504037433,0.06425310826884677,-0.43277998379062776,-0.25802145313959757,-0.3495840488272902,-0.2541149597376176,-0.2999693933825848,-0.34230649157051757,-0.3193137988607862,-0.32484287889755453,-0.27229476270837294,-0.1309752005993812,-0.16174216250002324,-0.4549642087884659,-0.41059428539655896,-0.4538525077781715,-0.35521537385996005,-0.39743778131429364,1
9.7,2.9,2.175,2.325,18.95,22.475,2.65,6.525,596.0,173.0,129.0,131.0,1191.0,1296.0,175.0,350.0,17.0,10.0,16.0,10.0,19.0,18.0,18.0,14.0,-0.2070667872300369,-0.4319144961604697,-0.2123391430904857,-0.31335783582678206,-0.48710858934994966,-0.3884175872571074,-0.39367040886051363,-0.28643165699820083,-0.40870311028451317,-0.2998167624219175,-0.377191380163166,-0.44659597584783345,-0.2750306945342585,-0.08118961855096679,-0.3214714975118153,-0.2911730944310586,-0.4460265586394124,-0.2702508855032139,-0.2891753520298506,-0.32605255979134307,-0.2684424528574819,-0.318048996202116,-0.2987032955380673,-0.4624089702589967,-0.3852392690402071,-0.19513593014757258,-0.461256155549276,-0.23221177969041504,-0.20331046545679823,-0.4689018946748423,-0.1910877118372553,-0.32987456805127197,1
8.1,2.475,2.275,2.025,15.725,19.65,2.225,6.375,462.0,136.0,118.0,114.0,1060.0,1157.0,123.0,393.0,11.0,12.0,14.0,12.0,18.0,17.0,11.0,15.0,-0.0944162606253161,-0.5387111730628019,-0.33687510165473356,-0.23246463349346488,-0.018314289893372335,-0.3269086464443626,-0.22350128060522562,-0.08198708492836485,0.03956144464865924,-0.36437052259499686,0.034201455255025534,-0.6003618107767988,-0.13258134179563658,-0.31914248479333446,-0.1014325775984479,-0.22792328610720156,-0.8860887135471283,-0.7644708257394773,-0.5888111021558274,-0.3512064850923046,-0.26690862244524144,-0.5200440658346253,-0.10041601013810302,-0.4655621820825563,-0.17084701984385434,0.08639298977239142,-0.31863810089514605,-0.08502868476427455,-0.26945145173640156,-0.3617643808998693,-0.43990273015459996,-0.1940570129248947,1
9.325,3.95,2.425,3.05,14.325,23.775,1.975,7.25,610.0,261.0,122.0,176.0,882.0,1363.0,110.0,474.0,18.0,18.0,12.0,13.0,15.0,17.0,12.0,17.0,-0.6978367085950815,-0.5093339291132873,-0.3370695595409915,-0.20774175912892154,-0.5946099700343517,-0.5599230174543279,-0.35319744407066367,-0.22572738103302967,0.038839526639019975,-0.5364043977867597,-0.06981594766937912,-0.17613520356164142,-0.12051259478685968,-0.6597860380246396,-0.12439828467223814,-0.1569705050200701,-0.1605086114174001,-0.5445590919778807,0.050248132205486795,-0.3597991250483841,-0.24015814746691064,-0.6114226591304079,-0.15780508859124992,-0.4399613098167606,-0.03576020194531319,-0.012198265160899809,-0.15815245987779897,-0.2319439274767025,-0.6479985620176414,-0.621083344783217,-0.428606262685621,-0.316468134682317,1
12.95,4.8,2.125,2.75,16.35,24.725,1.7,6.075,813.0,294.0,116.0,173.0,951.0,1389.0,101.0,409.0,19.0,15.0,12.0,17.0,15.0,16.0,10.0,18.0,-0.5906164526313786,-0.40662243324326747,-0.3463138883254264,-0.13706978736763104,-0.5113475592964641,-0.4639521588843056,-0.40634006121018196,-0.4662776497604723,-0.018335540838255084,-0.2632714625712762,-0.17887364901450037,-0.25505686410470524,-0.29141883089098874,-0.3724667305313013,-0.2400522356955585,-0.1222395107854572,-0.39356691409624067,-0.3572273082068601,-0.38653885537851396,-0.48564183877276007,-0.3276924112195158,-0.26337502419874936,-0.40123973128737145,-0.18902731016732352,-0.23152313546526576,-0.21629623789297853,-0.07166583848685752,-0.2051880592516192,-0.5301310695453838,-0.6048829009176623,-0.3585919962631329,-0.29654756379971337,1
8.075,3.4,2.125,2.2,14.775,19.975,1.875,5.725,519.0,216.0,116.0,137.0,881.0,1147.0,79.0,365.0,14.0,15.0,14.0,12.0,18.0,19.0,6.0,19.0,-0.41029537806510413,-0.3542277006382864,0.01198466333058164,0.017190958575314875,-0.3122674549870617,-0.20749735437759065,-0.28965703388927155,-0.2753601372704888,0.04837192867697237,-0.3243631992189764,-0.06860851773124,-0.2648601382941748,-0.26062444756740283,-0.6306527841072475,-0.26691896360926864,-0.45578061873053943,-0.37030715514891405,-0.23766169955761354,-0.45870919367148916,-0.4036253624077817,-0.36139757877438605,-0.4247979851628161,-0.40027748998852297,-0.425452996698046,0.20184754703219787,-0.01931998072293038,-0.3471126447841154,0.09196979610589814,-0.5555959306937807,-0.36674205871206783,-0.2897586335888139,-0.19794236568494447,1
9.3,2.925,2.3,1.975,10.45,15.55,1.975,4.575,570.0,186.0,125.0,126.0,708.0,972.0,122.0,270.0,15.0,17.0,13.0,17.0,19.0,17.0,18.0,12.0,-0.3635582705817722,-0.32773040897224887,0.005247071177385375,-0.19694449259119762,-0.377269832064677,-0.20075347176363836,-0.2938531701171632,-0.17200087745310666,-0.21776502654767046,-0.143697142861281,-0.25004022803821185,-0.128436719376663,-0.18290751581775277,-0.1364553636866411,-0.3910111654589948,-0.019166325549356947,-0.3806338497900964,0.15617291581163156,0.07287312800401513,0.011204859129029852,-0.5832637196507089,-0.6150965040870756,-0.5589913250208746,-0.09912819721669924,-0.3219416190035942,-0.09119708984758264,0.10302615752219275,-0.13160877157934064,-0.3375527767187452,-0.15896770337715366,-0.28730723025459015,-0.1553778443086642,1
10.125,2.275,2.375,2.575,15.025,19.15,2.65,4.275,642.0,142.0,124.0,138.0,1025.0,1264.0,174.0,257.0,18.0,17.0,15.0,13.0,18.0,17.0,16.0,18.0,-0.3800015019558635,-0.23034140146170504,-0.07753689000310134,-0.3536368894957321,-0.393129183437599,-0.35540790986535975,-0.21589931883197563,-0.41569532094645406,-0.23720446036582618,-0.18591171702552123,-0.37710368253654,-0.17698073417394627,-0.2944760522245845,-0.24083396762957732,-0.380667207499178,-0.14706126749680054,-0.4486725198907613,-0.4775657678694965,-0.027335192399853776,-0.288477075287754,-0.7990089137416926,-0.6894342768021087,-0.5223675220562489,-0.39902000065157295,-0.3328759344551492,-0.13537235160167607,-0.0833953018839049,-0.12350623534488232,-0.31734956401577363,-0.24337404486325184,-0.07189814310015746,-0.12077222614386025,1
9.925,2.55,2.325,2.675,14.5,16.1,2.1,6.325,664.0,146.0,130.0,154.0,921.0,916.0,123.0,404.0,16.0,16.0,14.0,16.0,18.0,14.0,10.0,16.0,-0.47589939258895725,-0.4619360717980384,-0.23992002666669943,-0.4375932696583646,-0.26429792989862244,-0.1623592079242271,-0.4141039115436291,-0.16701893964415496,-0.48273799787881516,-0.4448019009910572,-0.5559156099444208,-0.21537793301713265,-0.5397726124239403,-0.3389987120679587,-0.3786809464821232,-0.06622517937141911,-0.6562273644571591,-0.49012871924420087,-0.5496426027612347,-0.30093345927408505,-0.5492111262826334,-0.7276923321976962,-0.6424855390502432,-0.2907166191889499,-0.3938402546769018,-0.30548713191708965,-0.2266531867933375,0.024415896193707733,-0.5124352978450937,-0.7778293857931733,-0.3225683980550944,-0.33967822365915873,1
12.55,2.6,2.65,3.25,19.5,23.65,1.6,7.025,785.0,157.0,139.0,176.0,1116.0,1265.0,100.0,438.0,17.0,17.0,11.0,12.0,12.0,11.0,12.0,14.0,-0.48975392686334407,-0.3838775263694268,-0.20720215513263876,-0.2669992746771051,-0.1674825668267848,-0.06659820432578432,-0.099372465466812,-0.3021152183220659,-0.7707465827063069,-0.6302200199401928,-0.8609323452952858,-0.6118164374314559,-0.5588647553382969,-0.4573864056896072,-0.7718171789271097,-0.45222554318117897,-0.6327587732775178,-0.5593294898057153,-0.7521838323568512,-0.41365252908485073,-0.7190403619378261,-0.8475909343521759,-0.7772322518245998,-0.7889964401866367,-0.31327616615516624,-0.1766778145012916,-0.2562259653627891,-0.2425636203388976,-0.42097763454857823,-0.3717595099889878,-0.38755327052840444,-0.1691943716886949,1
10.975,3.55,2.175,2.725,16.425,20.125,2.075,6.775,714.0,206.0,109.0,123.0,1054.0,1171.0,138.0,457.0,15.0,12.0,9.0,9.0,17.0,13.0,20.0,22.0,-0.6129453510523641,-0.6762340542033838,-0.3923918207553621,-0.33690991245968643,-0.34790845885484295,-0.2555252876075448,-0.026194415909257522,-0.25784264377434357,-0.013414093070668865,-0.24551431263486267,-0.23507924348026624,-0.06126578746429866,0.026298538916657364,-0.5253772774151148,-0.27728356971340373,-0.17563693114043802,-0.5455116426521303,-0.6305199479510617,-0.5638676496906395,-0.5498648819375429,-0.5281598342301815,-0.6666122068566641,-0.6255732261411491,-0.5651877121201955,-0.31896318550914166,0.21971819359367747,-0.15276119532355614,-0.26529397527067733,-0.7046187699304131,-0.47431129225634855,-0.18721950671986595,-0.2129290348298353,1
12.675,3.45,2.125,2.825,20.675,19.825,2.325,6.9,838.0,221.0,108.0,158.0,1460.0,1313.0,149.0,431.0,11.0,13.0,12.0,17.0,16.0,18.0,15.0,16.0,-0.5339010669741975,-0.4312382047355258,-0.24405259128575957,-0.1858088856780942,-0.476094183177578,-0.18789122551374968,-0.26944261219457977,-0.3801976700789176,-0.44036783483206476,-0.38043940844691,-0.3271212440906289,-0.3723896650431856,-0.5713402729629701,-0.5857490544341509,-0.6161907476840085,-0.380074085139867,-0.911516146235994,-0.7564334687650381,-0.5448467723443996,-0.4674509879937004,-0.6558077020960256,-0.4764560132470232,-0.3700915510466474,-0.4122886824202257,-0.5383705326890851,-0.2523807543101834,-0.17402171422999504,-0.06354704251711493,-0.4345780935241708,-0.3548753952795594,-0.2607173302171298,-0.2307189826356539,1
12.125,3.375,2.3,2.7,17.125,19.9,2.175,6.675,733.0,223.0,124.0,157.0,1001.0,1284.0,139.0,417.0,15.0,18.0,15.0,14.0,15.0,18.0,14.0,17.0,-0.5536355251614816,-0.5687369697540505,-0.5212550915605405,-0.3399659414346216,-0.7190809473068117,-0.44803859647182925,-0.19045644463167583,-0.13194606578150708,-0.47618048520402545,-0.48630004727037074,-0.3704227423158157,-0.40414413586382747,-0.5130006660849212,-0.48157636097529716,-0.5511939541911658,-0.3024097177808641,-0.6779547149783318,-0.7963035525219179,-0.49014531764761393,-0.5234911630321514,-0.5621994287444398,-0.7669694361430346,-0.3561283279460587,-0.49221885032748564,-0.3658087774987915,-0.2937780914098895,-0.0790060711681728,-0.2934184266312655,-0.48044700035269977,-0.3043732785090796,-0.5382927233190047,-0.2940424581033759,1
14.275,3.45,2.625,1.9,17.825,23.7,2.2,7.6,981.0,235.0,128.0,113.0,1138.0,1368.0,141.0,457.0,19.0,17.0,15.0,14.0,17.0,14.0,12.0,18.0,-0.6825546554115255,-0.4024672169697376,-0.2109861050524803,-0.11625730522618337,-0.5787870073330078,-0.3957940716749062,-0.28465689714886283,-0.23151708784384278,-0.2720257525780697,-0.5250982677963317,-0.44993681531260166,-0.43231975120977073,-0.27028880011691847,-0.42505611047739256,-0.5196243194721777,-0.29054489024168,-0.7465984144724849,-0.7919238939513074,-0.5976958428840208,-0.5487350209357907,-0.5933428314070556,-0.6587087972164867,-0.5873571280857286,-0.6460584452387046,-0.221925494774635,-0.057827931848447416,-0.10443807396687209,-0.20797336224921614,-0.2767170262736375,0.043829205144305695,-0.22603950752433447,-0.21099394697189972,1
10.65,4.55,3.225,2.875,24.475,29.5,1.975,7.25,694.0,283.0,181.0,165.0,1342.0,1378.0,101.0,463.0,16.0,21.0,15.0,12.0,17.0,11.0,9.0,19.0,-0.33717890356961533,-0.1360580232889113,-0.24341196470327184,-0.08472148534012496,-0.679835562879864,-0.5180123404878422,-0.6141644686982167,-0.39384886662100016,-0.5106616806350347,-0.4369839853136633,-0.555004313824785,-0.49682702810158236,-0.45938511519632197,-0.42948602112151985,-0.5077283742122533,-0.4327193067518761,-0.3558981826063414,-0.3994242033741267,-0.4285153760431984,-0.47444481267756583,-0.1979552612413215,-0.4255664831517617,-0.47764590260619727,-0.362082628871745,0.12261562334812676,-0.030977300936705802,-0.12114707295880585,-0.22427158056863294,-0.6407865727550955,-0.5613413265576386,-0.16109372893181745,-0.06070978499522525,1
9.85,4.8,4.475,4.325,27.625,31.5,2.85,8.175,636.0,288.0,267.0,239.0,1622.0,1893.0,181.0,556.0,17.0,15.0,13.0,12.0,15.0,14.0,16.0,19.0,-0.026310208148248457,-0.4785776429676425,0.03552469507836501,-0.21075110397985683,-0.5577029680495112,-0.5528411475567361,-0.42677554727135,-0.20802704234045788,-0.634456117980394,-0.7121259245529213,-0.6507314404794644,-0.6666412695960631,-0.5592723444041632,-0.6748034395824118,-0.6157314176115556,-0.587163504703883,-0.7156369323379029,-0.7209413178796408,-0.7696053177671199,-0.5455825877830734,-0.6873349243626832,-0.7276838802531422,-0.7790949935848025,-0.6147378098715266,-0.3236837469219704,0.025343043501955435,-0.29461393843534395,-0.2416855060719008,-0.5906306320821787,-0.44477453123914995,-0.08344389819154543,-0.18417421699140954,1
10.925,3.95,3.95,3.95,25.425,34.15,3.175,9.575,726.0,246.0,218.0,226.0,1514.0,1918.0,211.0,648.0,16.0,17.0,13.0,13.0,13.0,14.0,18.0,19.0,-0.3549838007601649,-0.2714042810795047,-0.07922879428488185,-0.11639547357618518,-0.4908101842237228,-0.4136708703941627,-0.11408245659137667,-0.11341163017469728,-0.4607921143422977,-0.6246611510453265,-0.49639686077902184,-0.3891236390319122,-0.4949362183300008,-0.701355919883871,-0.4837790719407705,-0.527135004269404,-0.7516503460006593,-0.8561033730900074,-0.8045712279141456,-0.45228287373832843,-0.43111252745203116,-0.696018532418961,-0.6174890490875538,-0.26098977005021734,-0.49790252905067717,-0.1959722169547431,-0.07053690119161768,-0.11160640800130568,-0.4498473138589961,-0.26748811826278185,0.1594273261941892,-0.026857851522466638,1
11.75,4.175,3.2,2.85,16.025,24.125,2.425,8.75,714.0,256.0,156.0,131.0,884.0,1277.0,158.0,599.0,17.0,11.0,14.0,12.0,12.0,16.0,12.0,20.0,-0.42020717696658194,-0.4794249201370236,-0.20929438374373693,-0.219336721505571,-0.22150630035435667,-0.22040491179636476,-0.1995637411628509,-0.3650251393665156,-0.04481099182206611,-0.0792743590680262,-0.4627840157145167,-0.08716245178742246,-0.24081784219021832,-0.28459712902734235,-0.46315098744018773,-0.37711254220614254,-0.27426767073378305,-0.19581870033355459,-0.48500022637957124,-0.28078981263542413,-0.27706403717240613,-0.31090178466601165,-0.4851329326831307,-0.42734153735759134,-0.2857627601844478,0.12136119111940151,0.03839469474647911,0.029507344852689216,-0.44284144528089914,-0.2661130023406983,-0.03235743551478434,-0.06344380538499728,1
11.45,4.875,3.425,3.925,19.525,26.625,2.65,7.9,684.0,253.0,165.0,208.0,1155.0,1425.0,164.0,514.0,16.0,18.0,14.0,16.0,20.0,14.0,13.0,17.0,-0.40598975386332975,-0.09284785698845885,0.028188769672815465,-0.00858865571908446,-0.1891314228056752,-0.12221469592734614,-0.17768865244034862,-0.26633742664350707,-0.05837751903810233,-0.053988200965155275,-0.27199369681546204,-0.18382218746950316,-0.18666706190399254,-0.30442624841636606,-0.3001855645463229,-0.26566624677994594,-0.29837302195546034,-0.34496688472772863,-0.20577323063950695,-0.1828126862828706,-0.18338457802227678,-0.2799067416835325,-0.337463389137866,-0.3137185849219912,-0.4811616113445857,-0.25630369253271884,-0.17711849434404434,0.0666199888058356,-0.35399203832225795,-0.03749021947706144,0.09319305894660826,0.2257383335931116,1
8.875,4.25,3.825,4.175,29.825,37.075,2.875,7.5,600.0,224.0,209.0,208.0,1808.0,2123.0,178.0,522.0,19.0,15.0,16.0,14.0,18.0,18.0,17.0,19.0,-0.6614349045103287,-0.3627405633191478,-0.21548751070809913,-0.090349486522801,-0.2932855516511797,-0.3563224661481656,-0.4758490329665366,-0.3381814117568772,-0.5011184355568046,-0.6039491088223198,-0.5889878012053319,-0.5241980234677209,-0.38908957307551273,-0.5739931665795883,-0.6264950819991417,-0.42945407632077104,-0.5252981562756164,-0.5262883294774027,-0.5631077952413144,-0.5059734527484382,-0.5061598397406022,-0.5960676683268297,-0.5959116245191252,-0.5945028338631284,-0.5982815558989448,-0.43880356484933347,-0.5242403578339193,-0.32694982115908594,-0.32520345335120304,0.08495132942585297,0.0041747198504766365,-0.22978447621962292,1
10.225,3.75,3.225,3.1,27.625,31.525,2.3,7.6,556.0,223.0,196.0,184.0,1754.0,1826.0,137.0,495.0,11.0,13.0,15.0,15.0,17.0,15.0,12.0,17.0,-0.045129589729084575,-0.48396168744375956,-0.30521271427387014,-0.20108551223849633,-0.24320535239630664,-0.3393706517999783,-0.2905352583719585,-0.5201355017722913,-0.5919778790035574,-0.7498109966138296,-0.5492280577473833,-0.46254333221689153,-0.37994805660178854,-0.4155331949319235,-0.416222860872666,-0.30043624043794054,-0.5643200227603502,-0.5979743755766971,-0.5639250130420465,-0.3861082250518558,-0.40616818627458195,-0.48899388974836894,-0.5278470424204312,-0.3463391867252468,-0.4317519509863015,-0.33921016128155906,0.014863621002474655,-0.14656715503877923,-0.35229968614663226,-0.21771060859290936,-0.28893036145977496,-0.24795200177839052,1
12.6,3.475,3.7,3.35,27.775,35.2,2.275,9.65,679.0,210.0,180.0,193.0,1567.0,1831.0,129.0,608.0,15.0,15.0,12.0,14.0,14.0,12.0,12.0,19.0,-0.18732941439400855,-0.5069378876302557,-0.17351425846395035,0.08912243194471585,-0.38887636636267525,-0.36530713341516335,-0.5458427123455877,-0.20825607437822607,-0.5055450075630123,-0.5849265341427557,-0.6264148206741953,-0.5980790004706511,-0.31335594267985517,-0.23782647851251984,-0.42887559189740315,-0.42398379254791996,-0.47571351532461986,-0.5344473602343676,-0.5413068307825918,-0.3844319744666255,-0.5704243424459917,-0.6497600772125931,-0.6991789486790199,-0.5735301925554834,-0.3035353118756094,-0.29525532089149364,-0.2681737794180663,-0.2422992282489476,-0.6109760279312842,-0.4184306283305739,-0.13331524529023248,-0.2328361253095469,1
10.9,3.225,2.825,3.15,21.35,22.625,2.3,9.025,667.0,176.0,169.0,195.0,1310.0,1430.0,142.0,559.0,17.0,15.0,16.0,17.0,12.0,16.0,13.0,15.0,-0.4142865943780133,-0.2624854852805399,-0.431091212687523,-0.3036991484960273,-0.32357944375327763,-0.3316209617570398,-0.2949771559810163,-0.3193787535051195,-0.31808466140372577,-0.5510710810213381,-0.21569643439332348,-0.5968594235322088,-0.6329081805006537,-0.6659633303695804,-0.5141796386198312,-0.6130958627937062,-0.38665971645305847,-0.43286699949998686,-0.3260587756133316,-0.5560947497058363,-0.4039665958164456,-0.5536057115605089,-0.39525596227888843,-0.559080074406263,-0.3297913121067502,-0.16074784494593153,-0.22441145714977997,-0.3383625303664448,-0.637589544683928,-0.6667300362409554,-0.5062343634599397,-0.41338614071230784,1
12.75,3.75,2.725,3.3,20.85,22.925,2.625,7.4,895.0,214.0,147.0,192.0,1303.0,1369.0,168.0,472.0,21.0,17.0,16.0,17.0,16.0,16.0,16.0,15.0,-0.5775034104379823,-0.3319150836276121,-0.32350126231107396,-0.0106132838697133,-0.4654582464743284,-0.02861351442554475,-0.2627327291391129,-0.28144572061887135,-0.19708700068641383,-0.36583685247830594,-0.11378046749102597,-0.36583425159251176,-0.45899207210941817,-0.5557885099041889,-0.3685388880984341,-0.3558908450919492,-0.5873063286805841,-0.3832553653905797,-0.3787359687925909,-0.2638567701981171,-0.37878454597783645,-0.37710404034186484,-0.39757132987633664,-0.31527241384333754,-0.3807070579323281,-0.14167760249338038,-0.16606201394401554,0.04181990232295969,-0.37942117975115935,-0.3292494284449812,-0.3690919706800708,-0.3785579614200631,1
11.2,3.6,2.85,3.525,18.35,26.125,2.225,7.375,737.0,238.0,149.0,196.0,1133.0,1522.0,133.0,479.0,16.0,14.0,12.0,12.0,12.0,12.0,12.0,21.0,-0.5441513266542921,-0.35589001802954984,-0.05927125707205696,-0.2094496268599382,-0.45677539874158046,-0.0048966632698861905,-0.2080936629250502,-0.3409717498096533,-0.2530127663099077,-0.32995415722789717,-0.5566465260694473,-0.1788166307479218,-0.5326102302517863,-0.5111580906953659,-0.6900833302264852,-0.4113311422547581,-0.49302341398924976,-0.47615103457156355,-0.6172821358176613,-0.3694298456039762,-0.3591390041998715,-0.46339173363305025,-0.6273745350764149,-0.38671063727495925,-0.19025236845364066,-0.06103387220721119,-0.12329123920453208,0.12231063925288677,-0.643584890828056,-0.4972363585265586,-0.30391132435304163,-0.2203965106768274,1
12.1,2.375,2.5,2.85,20.575,26.675,2.2,9.35,758.0,149.0,131.0,160.0,1083.0,1387.0,134.0,588.0,17.0,14.0,10.0,14.0,14.0,16.0,17.0,16.0,-0.664504326769516,-0.4473468934670761,-0.3989852100309468,-0.5148504325445209,-0.15886117964791813,-0.14725258798350452,0.029814198193329335,-0.24930159620216058,-0.29807569653805543,-0.5211949197386846,-0.10460375911178992,-0.2946229613070226,-0.4236430160087627,-0.5239566487843362,-0.2475412456732779,-0.10754487295970647,-0.2121233492422321,-0.3840270515450334,-0.2872511537693362,0.04107123110173978,-0.16191387398967147,-0.6265708939673584,-0.24377824987265756,-0.2460790616546728,-0.2500352973305197,0.06951809282664598,-0.2553174507848226,-0.3523081361491924,-0.4680023103013096,-0.513637093150111,-0.3794681007191179,-0.28499279193560995,1
10.55,2.95,2.425,3.5,17.4,22.225,2.7,10.25,664.0,176.0,133.0,180.0,1009.0,1325.0,162.0,623.0,20.0,13.0,8.0,13.0,19.0,15.0,17.0,15.0,-0.3949178556393664,-0.32774583388624184,-0.17100463157777376,-0.22894567782914851,-0.31626715261249505,-0.5950286481441218,-0.27608167551685525,-0.3259939030700278,-0.2088337623257033,-0.5270984945404423,-0.2493690423862273,-0.17691131980017052,-0.27601341102065363,-0.5214323484634891,-0.42381875754340886,-0.389580784275383,-0.32918297609397695,-0.4379028953263284,-0.28574282070012086,-0.12721253406464442,-0.25581467261821633,-0.5053506412181481,-0.42551717715835036,-0.22655075812891215,-0.4997748473702737,-0.31545861456268437,-0.47611857971021126,-0.22225317651327725,-0.38000512827081906,-0.46990232571380813,-0.32577939356164204,-0.10536900929275413,1
9.65,3.3,3.05,3.4,26.525,28.475,2.975,7.675,597.0,202.0,167.0,172.0,1608.0,1672.0,176.0,506.0,16.0,18.0,13.0,12.0,18.0,14.0,17.0,20.0,-0.06858136032003657,-0.31440454879841756,-0.017034599711393043,-0.22258154196502458,-0.5297333171852902,-0.6274609490998458,-0.26135372770589615,-0.39826860815890347,-0.1965714865722521,-0.5133434845873535,-0.25593377991169514,-0.40383122430047536,-0.13706968021892205,-0.5473417645202288,-0.2645815590804724,-0.2823027722667384,-0.5082163171244012,-0.6143250692404169,-0.4390968718814462,-0.501107181766367,-0.4172975573059159,-0.6566346465358509,-0.397702403695579,-0.41775931602801997,-0.44041840894591483,-0.30007415008072075,-0.2583704069171875,-0.14735734700178163,-0.3874504952390651,-0.3566332446158084,-0.13517930854804505,-0.2437674405335656,1
12.175,3.325,2.65,3.425,20.375,23.2,2.25,7.1,748.0,187.0,141.0,176.0,1314.0,1307.0,142.0,390.0,16.0,12.0,11.0,13.0,19.0,15.0,12.0,13.0,-0.27699768280581816,-0.27107221505577567,-0.12534592804449346,-0.422213760500572,-0.31176706872404797,-0.27070388522778965,-0.33678102218601774,-0.39840274431374545,-0.0384778360438428,-0.3875591388446368,-0.20580770768896633,-0.391519895105492,-0.396460751907023,-0.48557090748130954,-0.46909568707202964,-0.6130858959885153,-0.5783272693430358,-0.466406483204804,-0.6648133238627437,-0.3352084002626041,-0.4675509361496537,-0.5227817681018749,-0.651554121122194,-0.45712208418824124,-0.3196629562236402,-0.24627587896281605,-0.17563751399252828,-0.056378660403390735,-0.0338912814343265,-0.1502369854553295,-0.1068521419358857,-0.33288316085482333,1
12.7,3.825,3.425,3.875,30.575,37.5,1.85,7.45,797.0,239.0,212.0,212.0,1869.0,2087.0,109.0,440.0,17.0,21.0,12.0,12.0,14.0,12.0,17.0,15.0,-0.3877092385145223,-0.4501000085790918,-0.12601222889485092,-0.29737790550580406,-0.3642585056253063,-0.37439002337753685,-0.25914955666403033,-0.20609555796225057,-0.4936195867315697,-0.5541219236497,-0.47072010674332393,-0.381352540862691,-0.5266586814373145,-0.5705044887134937,-0.48289719600886444,-0.3886324583134131,-0.7070791129202938,-0.7708981603444797,-0.6790832194762119,-0.60548262488763,-0.6438961339005278,-0.7324654111286232,-0.7190728459378738,-0.6189952509747889,-0.2700082209371487,-0.1529974161345471,-0.205647972275921,-0.15260152577670544,-0.40807979902485453,-0.46507910337226127,-0.37643583201531616,-0.14786240225153774,1
11.7,3.125,3.25,3.6,23.725,32.15,1.975,8.625,772.0,177.0,183.0,198.0,1282.0,1783.0,109.0,479.0,20.0,15.0,13.0,13.0,11.0,17.0,7.0,14.0,-0.2950563819198326,-0.1650498130432442,-0.024219891809353578,-0.013125692112234617,-0.2819502129497009,-0.49691107465212575,-0.309748398372278,-0.5052929991204598,-0.28433453514029966,-0.5783135763406341,-0.3268198327559048,-0.4190212889749253,-0.25299463710677755,-0.4932714524939038,-0.23215314869374412,-0.37543351109733586,-0.24224716972813282,-0.4440822705139534,-0.24536186420543246,-0.25618587480851407,-0.18851139990068919,-0.5068870936676864,-0.22319361276755376,-0.40858236202519355,-0.12725113920430065,-0.09490118031085933,-0.1186254244161221,-0.1172282913538387,-0.2932126358428318,-0.38643632023675284,-0.10726041387640162,-0.09733742808947836,1
13.025,2.9,2.325,2.375,16.75,19.825,2.325,8.45,927.0,160.0,112.0,138.0,974.0,1121.0,147.0,564.0,19.0,12.0,10.0,15.0,19.0,17.0,17.0,21.0,-0.4828434785384598,-0.21824694525879032,-0.054556645510487355,-0.12125563587150327,-0.42110554705805747,-0.3049963339529505,-0.5756511322400735,-0.46877289396531185,0.04365132915105459,-0.6256955767197998,-0.11294265247836927,-0.44090271373398165,-0.20661505950288866,-0.6113333265473126,-0.1307201624584286,-0.400085652212107,-0.3343847246075367,-0.3910487776494344,-0.3214336964129646,-0.33486931963096217,-0.2515374055594377,-0.5044076628349932,-0.26600054985657434,-0.627851962134034,-0.5194239685384764,-0.17521485338329884,-0.07745337765364119,-0.185053857357492,-0.4821018741005092,0.006552211321366355,-0.015224621601666722,-0.0011034889396988208,1
13.325,3.575,2.1,2.675,17.825,20.275,2.225,7.6,954.0,229.0,117.0,142.0,1026.0,1155.0,131.0,546.0,20.0,19.0,11.0,12.0,14.0,16.0,15.0,20.0,-0.7637730539444347,-0.5646197004793382,-0.37020932343799823,-0.2565218077572193,-0.5298485902919992,-0.29714283006254755,-0.4970102029950073,-0.42139414662869584,-0.23621729114073783,-0.2866644246992743,-0.23012323337948185,-0.38480857974572175,-0.07443576568082977,-0.32932309817506955,0.06191383687609568,-0.41016235766318826,-0.4620949804246914,-0.5514986840725402,-0.3382055570499689,-0.2238501196681753,-0.14823194283514793,-0.5161235028234066,-0.08293197415254408,-0.26221042510568904,-0.22689386623137198,-0.014244511730289051,-0.14202981599643452,-0.05528846827371846,-0.5183613610970664,-0.07406977364117645,-0.03300421440389536,-0.12411394135649503,1
12.3,3.775,2.875,3.25,22.425,28.1,2.55,7.15,785.0,231.0,159.0,169.0,1308.0,1604.0,164.0,468.0,20.0,18.0,15.0,17.0,17.0,17.0,15.0,20.0,-0.22345168306085894,-0.28725772167984626,-0.21377573299758434,-0.24474769533318794,-0.4847107872552403,-0.2655921415461354,-0.46150950361956117,-0.3572459099993837,-0.27385033616300913,-0.34890146130340977,-0.4428495326300716,-0.26130562175366867,-0.11954208597570364,-0.2432886736576756,-0.25670419956976953,-0.17423522027054708,-0.40461210506050654,-0.3831335782753619,-0.46366804727726985,-0.24940021217321032,-0.40010751879208367,-0.4380815810160735,-0.44461065990675974,-0.25543514093856423,-0.4144981193872745,-0.21581927135592383,-0.15650751138075958,-0.252231921682891,-0.44077673024929803,0.027980054029726784,0.09337334590275799,-0.08398034075538044,1
10.925,3.425,3.95,4.45,22.875,33.475,2.475,9.25,713.0,197.0,227.0,263.0,1320.0,1865.0,145.0,627.0,18.0,16.0,17.0,20.0,14.0,14.0,15.0,21.0,-0.46071700137616106,-0.4683873647404122,-0.2827255676667543,-0.44273245867820116,-0.38684042889787645,-0.4405590546642245,-0.24110253772739623,-0.07882728287353456,-0.7462293015273945,-0.8489790204564801,-0.7612809350035347,-0.6297634035422616,-0.7077325573614949,-0.7506676824627455,-0.685378383238036,-0.5532594678947187,-0.5495442857528693,-0.6682029664579727,-0.5577184844509119,-0.5078438449196602,-0.4651828370356484,-0.664598903083954,-0.5318039477323756,-0.5077943018268462,-0.5438636954231978,-0.2820179827931253,-0.3019337718420939,-0.35221942196579703,-0.5201991506109258,-0.49035361314151676,-0.11780645269757731,-0.21370369681925258,1
15.0,3.675,2.825,3.625,17.8,24.15,2.45,8.375,1030.0,238.0,165.0,209.0,1141.0,1470.0,115.0,555.0,24.0,13.0,15.0,16.0,14.0,16.0,12.0,18.0,-0.5567059534164754,-0.027437371090499124,0.07719474410488278,0.04793853451204755,-0.6558439548271643,-0.5287769282619454,-0.27832818686849026,-0.12457156754972237,-0.3550579870033974,-0.6865746152266311,-0.3009327396909648,-0.6630090143165219,-0.2791388779267462,-0.4168304174958014,-0.14558123624246266,-0.5290900061172616,-0.5227424750630497,-0.6574170155536864,-0.49731119930104184,-0.6003936648457228,-0.3497485505481953,-0.5486516582320393,-0.3452812014266348,-0.659400285930783,-0.03816351632820903,0.03169196298071235,-0.16387457191223637,-0.4488872181990889,-0.28386797132410674,-0.11331195021203223,-0.1219450961650162,-0.34600782600774305,1
13.025,3.35,1.95,2.0,11.575,14.025,2.95,9.15,877.0,204.0,103.0,131.0,708.0,816.0,155.0,618.0,13.0,13.0,13.0,13.0,14.0,17.0,12.0,20.0,-0.6408939364298789,-0.4407772822831386,-0.43416651402959444,-0.11583139117112434,-0.5742355505139841,-0.39659173310561746,-0.10791143700818655,-0.043791548266706164,-0.12235283443396958,0.12824970336891706,-0.33186638880544495,-0.18555184969589467,-0.24087523873474787,0.04563887844880928,-0.21959364160965603,-0.38317037214700805,-0.46330499331622593,-0.4800351015114076,-0.34616375030827884,-0.10141613184998398,-0.16572050255476414,-0.4470652307948712,-0.23200793666681038,-0.1675580221980767,-0.12778536336850113,0.19764124862388266,-0.11484072858932856,-0.3854756004492028,-0.44285689028878333,-0.09154149961133248,-0.14681614926281272,0.019802162687002637,1
12.125,4.65,2.375,2.8,15.575,21.925,1.75,6.05,636.0,308.0,130.0,173.0,960.0,1366.0,98.0,356.0,11.0,21.0,13.0,13.0,22.0,19.0,9.0,17.0,-0.3333428911831362,-0.21900118953830744,-0.28402884179614474,-0.18392932932771894,-0.5022888141338196,-0.29031411326225004,-0.40830591924621423,-0.2940711712530726,-0.16097970038908835,-0.22813052539883644,-0.2860605776231155,-0.3540276029893213,-0.26800717184088035,-0.10619033332332914,-0.2903328780063947,-0.25056793734070254,-0.4390062340393407,-0.19906899494022226,-0.30243165425504825,-0.20727227642921384,-0.30509712901043695,-0.1288981345034429,-0.34735365459075546,-0.20855524855385663,-0.18400759639564554,-0.06734147824945269,-0.21197715399022202,-0.36072857981973494,-0.28597260863989804,-0.5807708345877286,-0.2972834872123766,-0.3537810753837781,1
15.55,4.7,2.075,3.025,16.4,21.8,2.6,5.65,1000.0,328.0,122.0,178.0,871.0,1170.0,129.0,328.0,19.0,19.0,12.0,18.0,16.0,16.0,13.0,12.0,-0.4083154007489647,-0.24362235605720461,-0.035546834675075814,-0.11171361200393604,-0.8352920923849317,-0.6487801761017632,-0.5402514468438407,-0.27746348635674006,-0.2819011845045083,-0.4059202948340075,-0.4047001852254614,-0.403081952692601,-0.2686939226995814,-0.0882630905468307,-0.18863046569655564,-0.43195556221779813,-0.33021842097556153,-0.6984775821073854,-0.3416058918996272,-0.562160878440754,-0.413771236301739,-0.4724120348422048,-0.4694312786265989,-0.43864321832665665,0.2086364751016974,-0.7025981546680107,0.17046971231326474,-0.33212484154616984,-0.1652117383877679,-0.09127191577784118,-0.06212576411434285,0.13449359558580246,1
15.675,5.35,2.6,3.3,17.05,17.875,2.4,7.7,1059.0,361.0,150.0,212.0,1057.0,1173.0,112.0,500.0,20.0,16.0,15.0,20.0,14.0,15.0,13.0,16.0,-0.38544468711141244,0.0276584323752062,0.303663581432137,-0.14923290178559914,-0.6456056006437256,-0.5089923499668865,-0.38945623667649754,-0.32068502660849185,-0.1890016074091445,-0.2512500508210508,-0.007697366717586459,-0.2763037509466463,-0.43810490828771914,-0.1289668264430442,0.25204578521505716,-0.127702902687342,-0.41322050218030915,-0.3254286310566086,-0.28910291229111806,-0.28668335910403486,-0.5431636729040928,-0.6359728798899508,-0.3610591044874277,-0.38597975519808486,0.12544112541966992,-0.14967281087227144,-0.028170753977266903,-0.11608084729665172,-0.398442590022868,-0.35890607090784743,-0.18422954700154373,-0.34526459838839524,1
15.95,6.475,2.75,3.875,16.35,18.825,3.2,7.05,1049.0,431.0,135.0,219.0,1068.0,1198.0,184.0,432.0,19.0,21.0,11.0,12.0,19.0,14.0,12.0,18.0,-0.46863951505002405,-0.1627237101157264,-0.023309024709475937,-0.1799226286296575,-0.7756184094301719,-0.7167127973825753,-0.5856964570380705,-0.5287168768982493,-0.14282013813883424,-0.4976459008192277,-0.11943114240450779,-0.19709475727050377,-0.38711042416348895,-0.4828147209375404,-0.13768253719916052,-0.152095924633823,-0.5118321699471331,-0.5115530864482822,-0.5190486707924559,-0.3768745336383194,-0.5713402715608652,-0.6995753429493665,-0.48158675742531015,-0.3104159351630228,-0.2709548325603754,-0.11662252587244186,-0.1803662625515798,-0.17094244661392477,-0.48511760114726593,-0.4184563898656152,-0.32250034981056075,-0.16890893618089117,1
12.625,3.925,3.375,5.25,23.625,26.875,3.05,6.05,827.0,266.0,207.0,366.0,1477.0,1439.0,189.0,371.0,19.0,15.0,14.0,20.0,14.0,12.0,19.0,15.0,-0.32882928380399534,-0.08925923710133248,-0.1439190260782835,-0.4015072659923875,-0.7667946626174422,-0.3888161023458273,-0.059836450534989274,-0.21811605919088486,-0.4381053291468564,-0.31047096531706186,-0.39836213264878356,-0.4331356667347438,-0.4381548987165161,-0.13795854134901783,0.11320264709000649,-0.21432881348782792,-0.49178365170389116,-0.263368119644549,-0.4669988580758646,-0.2493747943118151,-0.2916900426598066,-0.3455081348118256,-0.38173263751778663,-0.35266297164247995,-0.4319925447962135,-0.2703182958055869,0.12527092461131437,-0.082043170084399,-0.22041311897929963,0.05066900056985079,0.05352319571176782,-0.22363042543694536,1
17.175,3.65,3.15,4.35,22.45,22.55,3.625,8.575,1100.0,231.0,192.0,266.0,1446.0,1364.0,215.0,514.0,19.0,16.0,13.0,13.0,19.0,15.0,20.0,16.0,-0.4329413676997531,-0.30084098328969,-0.3461620915401356,-0.2943495256076636,-0.6323694810373266,-0.6523299494759074,-0.4584709356075706,-0.3620750739396437,-0.16017473439565724,-0.18398677561324508,-0.01127392753919946,-0.4390412938873379,-0.11933150702998187,-0.29625829163410555,0.008680765701973616,-0.2753332627604925,-0.4265459603538104,-0.3454019103143104,-0.10967570450501052,-0.38380284751915933,-0.36464291421523426,-0.31475001919122986,-0.30216143448835653,-0.3475495227917187,-0.3373491691238402,-0.020771038422870734,-0.11445376611945905,-0.22022742258629727,-0.516071654102523,-0.2812760031870949,-0.2756830180428503,-0.16131392612823484,1
17.05,3.725,3.25,4.2,19.45,26.075,3.3,6.975,1047.0,225.0,213.0,290.0,1182.0,1565.0,208.0,397.0,20.0,15.0,15.0,23.0,16.0,16.0,18.0,17.0,-0.5341786820999912,-0.13812309943715095,-0.11933371835519331,-0.18037175112790044,-0.20647853073547048,-0.2112119780708091,0.02357979884514908,-0.22890833610848954,-0.5037577374497614,-0.4020997650782384,-0.37331394925476763,-0.28737909945363926,-0.49186887468789886,-0.1810526830998325,-0.1790528548621928,-0.15660045685129015,-0.21629766155187105,-0.1698952534701497,-0.2920764803286117,-0.1576780538254741,-0.5401716114139923,-0.6040073090552414,-0.42649055798805313,-0.26843406288669486,-0.39938957228105104,-0.33076987710537725,-0.00043133101525654036,0.04394092856287194,-0.09849810045952358,0.06836756091006398,-0.1829220695754896,-0.07322513966289222,1
15.975,4.5,3.475,3.75,26.8,24.725,3.025,7.575,1076.0,307.0,225.0,254.0,1738.0,1525.0,175.0,465.0,22.0,16.0,18.0,16.0,20.0,20.0,16.0,17.0,-0.6031887866452648,-0.20445314772513618,-0.08395263390819324,-0.16886141478393005,-0.4199896218344092,-0.14800418788397082,0.010748025705380741,-0.3620834432707925,-0.5324526749166875,-0.34015551374484004,-0.2195848578243236,-0.2382125360252375,-0.6114685380044681,-0.32202850612505646,-0.14408348712307395,-0.2219105356291695,-0.532013503788756,-0.31111070966095505,-0.20000100807813678,-0.2779419130297459,-0.515745055906298,-0.49559339195477514,-0.3218622956959153,-0.2680848868361865,-0.24839087102171595,0.1514229217126461,0.14817600286760407,-0.06441382305589888,-0.10240097143401514,0.12041477734353302,-0.28886194131420223,-0.13844321224265188,1
13.0,4.15,2.7,2.2,24.6,23.15,2.95,6.75,864.0,280.0,184.0,133.0,1645.0,1570.0,190.0,483.0,16.0,20.0,20.0,12.0,20.0,20.0,15.0,21.0,-0.3366713807188542,-0.3448498166437725,-0.26647782708725776,-0.13926183820400673,-0.5518850483792195,-0.4922637149073583,-0.23418755777023947,-0.3600210406198735,-0.4531914652238201,-0.06119940215578836,-0.03630301025933969,-0.23860170967565894,-0.12275183999489928,-0.11467481524276096,0.05890761642049379,-0.1204404970231073,-0.7902348292656328,-0.6707247658035754,-0.37828176634252336,-0.22370847947328673,-0.5504288989017334,-0.3428909508074117,-0.4117449945410256,-0.24117174371768066,-0.2732727076454186,0.1960216068994155,-0.07740048151396968,-0.2739153983919203,-0.44832264456883086,-0.2448514257610943,-0.15403065317323048,-0.354077906744519,1
12.4,4.325,3.025,2.9,24.725,22.975,2.25,7.15,823.0,273.0,170.0,164.0,1500.0,1450.0,140.0,413.0,17.0,9.0,11.0,15.0,15.0,17.0,10.0,16.0,-0.2293670929861778,-0.20310937905681772,-0.2937782546495878,-0.0604587157000688,-0.45550697440102184,-0.32251809848038476,-0.3925592306013134,-0.22118005940598534,-0.16424824303023985,-0.025603685509346035,-0.08739947493560606,-0.25785936138806126,-0.15016248432949864,0.05757168535346349,0.19066833533829097,-0.09455203498253575,-0.17391681082584742,-0.24714466430677456,-0.056515869663008145,-0.482891834268601,-0.2959850679701438,-0.4256421961700241,-0.20575868134029981,-0.3728362902989989,-0.06750807899469595,0.03941535485620803,-0.18789428199787842,-0.24195795546982146,-0.12174720885654496,-0.23878753509919823,-0.1694225527783619,-0.4011372629195407,1
12.25,4.075,3.25,3.175,25.125,27.875,3.0,8.8,791.0,270.0,170.0,180.0,1609.0,1723.0,179.0,497.0,20.0,17.0,16.0,17.0,16.0,18.0,15.0,17.0,-0.325209071142551,-0.19470204613158892,-0.3072753284111204,-0.15502736784316798,-0.47578153823404656,-0.5305836489795991,-0.03768973788072598,-0.08306647477411737,0.10135302956998905,-0.5744689962768639,0.2929208446170021,-0.3967048605342554,-0.11441728809243756,-0.5202006146520968,-0.029147455898903205,-0.22886460892593882,-0.45339638010361283,-0.5134475110514979,-0.23967798062935028,-0.2823646028177805,-0.3858840888614555,-0.630703005670908,-0.20558681767155138,-0.3342050289111421,-0.19680232996374997,-0.26394414849014175,-0.2789730880387753,-0.22680302597053137,-0.26185478654440686,-0.3196571137558229,-0.2613976521355744,-0.2485206295675713,1
11.075,4.0,2.35,3.025,20.775,21.425,2.375,9.025,712.0,278.0,144.0,193.0,1324.0,1285.0,149.0,560.0,18.0,20.0,12.0,18.0,14.0,14.0,12.0,18.0,-0.24901762974499578,-0.04154715976263939,-0.08832391737290501,-0.1958050866857766,-0.8057676578146946,-0.5331238658159604,-0.2831888558307719,-0.19364064534959516,-0.31033982416715256,-0.31210733607796565,0.00792511806430227,0.0277508383409596,-0.39285677411656383,-0.27997483066988843,0.009441408448826422,0.07732635893014077,-0.5005939069422671,-0.33916216960329815,-0.2924463615979388,-0.4614241460847794,-0.3794959353850307,-0.6238691405490966,-0.15386397899701207,-0.3401520445184447,-0.26271578853023686,-0.10937707309588507,-0.10895531824894346,-0.09917520534597216,-0.6252259052814622,-0.405917523483529,-0.2703424986493561,-0.0005584649932317868,1
11.275,3.325,2.55,2.9,21.9,23.975,2.575,5.85,764.0,235.0,164.0,167.0,1337.0,1592.0,157.0,366.0,18.0,16.0,19.0,16.0,19.0,21.0,20.0,14.0,-0.5486201006638404,-0.49258764241233616,-0.3121676310136258,-0.3145191469032131,-0.615791092431404,-0.23102957142832217,-0.20497383684248655,-0.28680571955565687,-0.7062656576701476,-0.5643964284072542,-0.4008325939408466,-0.30071470880962997,-0.31776095004340726,-0.29400321701611065,-0.3049841662908519,-0.08381054273010886,-0.5404142082772151,-0.6136714423577633,-0.25640211224960946,-0.3931472864637025,-0.8201211534603082,-0.7759101170903171,-0.5450137029698907,-0.4345405920924309,-0.20405142873164955,0.1185424807338034,0.287763989269762,-0.2167210444191506,-0.3525591915730538,-0.40482653708374605,-0.0735519201326205,-0.1479137620939361,1
11.0,2.925,2.95,2.825,28.5,27.9,2.775,7.8,588.0,174.0,182.0,174.0,1956.0,1823.0,175.0,529.0,13.0,13.0,17.0,21.0,20.0,20.0,15.0,17.0,-0.16948879907349237,-0.6040934964856522,-0.22378527104082585,-0.20850090202386976,-0.33651593211296166,-0.4396202543883227,-0.31796940920620015,-0.5194958569063163,-0.5334349176088841,-0.4419873412970382,-0.21818096472391427,-0.303482523309211,-0.27500852314147034,-0.09297802944305891,0.03917573428477596,-0.34176259402183273,-0.7664835534817569,-0.6273734487261697,-0.2923128125990412,-0.1841626896313106,-0.4936243614854887,-0.4017789437735103,-0.1612590181197783,-0.20906337981755255,-0.28074206243225064,0.05828250246917308,-0.05493433899128638,-0.1527288538935842,-0.2766867170621329,-0.018827631871702253,-0.06957360736816243,-0.06109635221288303,1
11.525,3.85,3.05,2.825,27.925,26.75,2.45,9.5,643.0,236.0,200.0,173.0,1742.0,1613.0,141.0,634.0,15.0,14.0,12.0,12.0,15.0,11.0,11.0,22.0,-0.20526298283916808,-0.23057368966409797,-0.1413917554515572,-0.022862485622044064,-0.38335667928798245,-0.32941592655718316,-0.2261034886365124,-0.35441660983593437,-0.6748273727940028,-0.39770871924286033,-0.2904302320602711,-0.2622683553185584,-0.34759591129797635,-0.27302276448231483,-0.2435609092696572,-0.1932621175261016,-0.5711760731779045,-0.4490876877203053,-0.36915768498880513,-0.23414729860267297,-0.5240811863394504,-0.4159428764403754,-0.4417732867570091,-0.3002675839253904,-0.2344286987573609,-0.17060855289431257,-0.04134281370814683,0.04447737082463477,-0.22743910031968487,0.25223049377570855,-0.2286594223564513,-0.26820813176897207,1
12.65,4.275,3.075,2.6,24.825,26.25,2.175,9.5,756.0,278.0,175.0,153.0,1535.0,1603.0,136.0,654.0,16.0,16.0,16.0,16.0,14.0,12.0,12.0,19.0,-0.2858793666505339,-0.2519390317866491,-0.19196601921526835,-0.11816258029500466,-0.5859867674582926,-0.43271678832712784,-0.47306334010489604,-0.4429251737889457,-0.5699469491825163,-0.5456812136781559,-0.6490197951833998,-0.4525329349353601,-0.4556788942543773,-0.34529362056659346,-0.517606903198103,-0.3118736675341993,-0.48034824863752623,-0.5506602859253662,-0.6628198411967965,-0.3257877720732926,-0.749649510802065,-0.7672107028427261,-0.8473517175146715,-0.670966423737532,-0.21107693301720257,-0.18802957823051644,-0.04424514719161656,-0.09263700844049821,-0.4745473672137112,0.06674825081902336,-0.17858554680550537,-0.272293215301686,1
13.1,3.95,2.6,2.5,22.175,24.425,2.15,9.25,859.0,252.0,138.0,152.0,1309.0,1340.0,134.0,619.0,19.0,17.0,11.0,13.0,17.0,15.0,17.0,17.0,-0.45408434557855204,-0.3491655546768815,-0.28617183969200083,-0.4270062715278009,-0.6591424234879031,-0.3946988057933027,-0.5638398652478964,-0.42698248687086965,-0.43815058040617755,-0.5468589354292387,-0.5081331756933722,-0.40834134529193994,-0.3886428898409649,-0.6504201272040567,-0.24738696266919677,-0.25235383170136516,-0.5178908747857275,-0.6543829266516118,-0.49725335179039976,-0.50185022129848,-0.35891298170961927,-0.5277622792382529,-0.42893693157192875,-0.4510996622935393,-0.3566930265715054,-0.22289631904745538,-0.3412486965928083,-0.2392290685779772,-0.30325230836235184,0.12130194854621648,-0.11583512996496921,-0.29217258716971667,1
16.75,3.45,3.225,2.625,25.35,21.5,2.325,9.975,1142.0,217.0,178.0,156.0,1650.0,1268.0,133.0,610.0,18.0,16.0,15.0,15.0,21.0,15.0,15.0,16.0,-0.46589303836100265,-0.230313559764559,-0.18345265640000136,-0.11488275584284444,-0.4117698491120619,-0.46808770743345196,-0.39221424023913815,-0.2973939743915255,-0.2471223811633685,-0.32962863400270787,-0.3834691286053352,-0.3009477942771734,-0.14634860068439304,-0.26528197160651174,-0.2786781866713192,-0.032591462620559564,-0.4876089038870256,-0.4314483236466815,-0.2214992342925385,-0.36529136523407363,-0.44829653460833446,-0.5143572698234059,-0.49507742497635854,-0.3953712291119177,-0.173588382953721,-0.4246919066337688,-0.30929193811308625,-0.11119007086368324,-0.2191039464581994,-0.2627319556553574,-0.33474377094831537,-0.08674106679447964,1
18.15,3.475,2.525,2.525,22.6,18.15,2.625,7.525,1183.0,215.0,127.0,131.0,1315.0,1049.0,173.0,450.0,18.0,16.0,13.0,11.0,17.0,15.0,20.0,10.0,-0.5173646554350431,-0.4249399525966297,-0.30248243144066145,-0.2810018867683741,-0.18583665277036718,-0.3469549119706157,-0.1255634027164614,-0.4570428633795733,0.013383461995577538,-0.38398438225940046,-0.09681916986412228,-0.4060630129014539,-0.06646959041563306,-0.2692650665469838,-0.10588962401546931,-0.16615107087572575,-0.25863137912883566,-0.26715530252852915,0.008565306564044663,-0.2211768315606251,-0.18870140884249798,-0.29510887730990154,-0.21714552692588668,-0.23996406036260579,-0.4776882483121039,-0.38809815465656744,-0.3079676806628732,0.1634334129310315,-0.18917513209055678,-0.18292494141298515,-0.1504549674776377,-0.08672061130038969,1
13.3,4.825,2.525,2.95,21.85,19.425,2.575,10.475,856.0,279.0,146.0,187.0,1502.0,1336.0,147.0,682.0,19.0,15.0,14.0,14.0,22.0,19.0,14.0,22.0,-0.33988663167030836,-0.27756801847841733,-0.2647317687717186,-0.023203030741477094,-0.362398090506919,-0.43065643503081646,-0.361560345978132,-0.29891695373957705,-0.20756793225125686,-0.3734408170646146,-0.1429378659270894,-0.17451448424118288,-0.3527376745819504,-0.45028610639514766,-0.2001466705671831,-0.37608174939562383,-0.4645534880838078,-0.11323701219999927,0.08098745981635512,-0.298903914989011,-0.7958345233905798,-0.83565354175871,-0.4432908198916666,-0.29838052558888845,-0.2956584666222493,-0.09811721372255884,-0.012125196681470133,-0.02165917177278728,-0.35013651612232566,0.11559882953617112,-0.17290010975433814,-0.18440472658863563,1
11.775,5.125,2.725,3.6,18.6,20.75,3.075,9.8,717.0,291.0,164.0,210.0,1203.0,1432.0,195.0,621.0,14.0,18.0,13.0,15.0,14.0,17.0,15.0,21.0,-0.26617980291205545,-0.3246931813812394,-0.27878539421609083,0.07090042091164409,-0.1898659230026694,-0.4577748348321584,-0.13407357340250575,0.00016176268107670862,-0.19893706789018847,-0.19434025162091567,-0.08873091135495174,-0.1983965718944238,-0.38561048996531244,-0.30942511897193925,-0.22154724244016238,-0.21924507393275525,-0.3626464676571032,-0.1375268766740595,-0.23156945528321005,-0.11749197484409439,-0.5330308958324687,-0.35322145004154554,-0.34973648747647135,-0.321589889095332,-0.38507812655626183,-0.18167692427446225,0.08509225290267008,-0.16712832450486714,-0.23674444659728805,0.04186541760570966,-0.0752749742919581,-0.00416749393674736,1
9.325,3.55,3.9,4.55,33.1,28.925,2.725,6.9,506.0,242.0,252.0,283.0,2189.0,1751.0,144.0,451.0,15.0,15.0,12.0,14.0,19.0,15.0,11.0,16.0,-0.15439808650507478,-0.23840175895019675,-0.11068549671059694,-0.11275195351100628,-0.5238909490059038,-0.15805611450071738,0.11585137238356699,-0.17206913735680082,-0.5255288419457657,-0.406643381638508,-0.5240584581735781,-0.4882995770645682,-0.43906855280122864,-0.3289069542390993,-0.3822293520074429,-0.5926263520172123,-0.7777690875626202,-0.6661698861387558,-0.6870190452740221,-0.4805708407861196,-0.6128012531893916,-0.5027082959753892,-0.6610273356900856,-0.6493955350725324,-0.197841400464369,-0.12807888995176114,-0.06587778430545456,-0.13558568961342823,-0.4062157785993204,-0.3689474793862475,-0.286146522729467,-0.24166756275672932,1
13.85,3.025,3.05,4.075,27.6,23.75,2.4,5.9,732.0,185.0,192.0,263.0,1874.0,1564.0,167.0,353.0,13.0,17.0,15.0,17.0,18.0,22.0,16.0,18.0,0.004720829316676021,-0.008728471479075685,-0.3830200413456493,-0.054793561149462267,-0.37052288729176536,-0.25679795192994814,-0.021346426973565116,0.002991987226689496,-0.1440480456838672,0.11064222456006598,-0.45877091560669503,-0.1923732004878899,-0.23813668236452015,-0.049077509290354066,-0.36203741266793976,-0.36694544136950974,-0.624535005611766,-0.22539296888701157,-0.3934256771649025,-0.4119268396858344,-0.4473921762805911,-0.10780554208565672,-0.47784078096870997,-0.41046140609104526,-0.09384785819102369,-0.17413514970230468,-0.04425203742036478,-0.19691293282082553,0.019665548088176756,0.054000150655537586,-0.0077599833900111655,-0.13631124494319435,1
14.125,3.9,3.625,3.925,25.45,25.425,3.1,7.425,765.0,247.0,220.0,268.0,1669.0,1653.0,185.0,483.0,18.0,18.0,11.0,21.0,17.0,14.0,12.0,20.0,-0.07718919408671684,-0.08469707894089035,-0.1860857161273656,-0.2210899662172681,-0.591170985105831,-0.40223695235926404,-0.470628822959324,-0.49555116065914356,-0.2796334836936718,-0.23977294742511082,-0.4117473348400815,-0.39197038669276546,-0.40977901860789956,-0.3471890635152168,-0.4255234624665367,-0.3833494885673373,-0.5229114928128455,-0.29228345801985367,-0.03421463223196346,-0.33798064458948496,-0.45499989071554464,-0.4255214962939336,-0.35460588033023654,-0.5145515333776257,-0.14378633602968924,-0.0693881036133358,-0.00659696464699218,-0.14644426278432454,-0.15230832607577513,0.0938178218186978,-0.09098669886594886,-0.17340070976996244,1
11.45,3.55,2.925,2.925,22.75,23.925,2.9,6.55,755.0,229.0,158.0,158.0,1316.0,1261.0,182.0,430.0,18.0,20.0,12.0,11.0,16.0,13.0,19.0,20.0,-0.6158249943976999,-0.38468199767632427,-0.3099471689592431,-0.14808515649366763,-0.6880064164475956,-0.39392013287449107,-0.20345198573311388,-0.17024175652064877,-0.13491929790838994,-0.42203162962411384,-0.3285538734324654,-0.3895241525942012,-0.17290057423278138,-0.17912691231910002,-0.24045083584853527,-0.26442769379869857,-0.43125785665094013,-0.4167813128674935,-0.4416793437291986,-0.29613268781289775,-0.2425871893912894,-0.5446696189382566,-0.2575956357967151,-0.39499341390267256,-0.28079054042434987,0.0795842172845142,-0.05896866205768567,-0.1939277524848539,-0.6946441284256824,-0.31415234218826865,0.09820777397826258,-0.0020443121858418805,1
14.225,4.55,3.325,4.5,24.95,24.9,3.125,7.075,976.0,279.0,216.0,269.0,1401.0,1465.0,202.0,437.0,20.0,16.0,16.0,19.0,16.0,19.0,18.0,13.0,-0.5018063996211752,-0.3169376386437407,-0.32017015496433493,-0.22612803383675212,-0.4497287223077989,-0.09997416716307884,-0.4169719687298588,-0.4091073997721941,-0.37490902945318266,-0.3726102196287522,-0.262145134417856,-0.49804962863792224,-0.41720444400101475,-0.28415706537828855,-0.03541786765781999,-0.32386478678165,-0.22607722290893909,-0.3181791048809012,-0.2645900350702209,-0.3551879593147272,-0.39504247801442277,-0.3257739439872531,-0.4097592386188329,-0.467352453106422,-0.6147863309310898,-0.3512863472036803,-0.1333830349251691,-0.08801074236218756,-0.3181305414213386,-0.24422753787629353,0.03939424491092053,-0.23703246316015192,1
13.225,4.15,3.65,4.575,31.675,29.7,3.25,10.825,821.0,244.0,199.0,287.0,1859.0,1735.0,203.0,774.0,16.0,16.0,12.0,12.0,17.0,14.0,20.0,19.0,-0.45645153480835043,-0.3316732870240654,-0.4828229542608344,-0.25316180715886216,-0.47494701462243905,-0.2538364605634519,-0.36102233244151954,-0.2853057227574837,-0.32366882399160135,-0.27156985886957624,-0.2762320240489436,-0.38190374671969496,-0.34140363315962946,-0.10141982029798281,-0.3095007053017755,-0.6187436737753764,-0.31515801873782284,-0.44758342502877196,-0.16779121268611474,-0.1998170928726297,-0.5132893882897989,-0.5985145505123025,-0.4409615930018031,-0.4545991159432761,-0.3397558782695286,-0.20724321912002053,-0.16986492835291436,-0.26657411587467833,-0.5389837643080646,-0.13044277935309773,-0.020194448406603414,-0.4124265046992269,1
16.4,4.325,3.8,3.85,32.8,30.1,3.7,10.325,869.0,270.0,203.0,245.0,1943.0,1772.0,208.0,596.0,15.0,15.0,14.0,12.0,16.0,12.0,9.0,12.0,-0.06513823966559054,-0.20735564892591857,-0.09964451562519071,-0.16571966069254196,-0.39712420328598713,-0.42943381235455247,-0.2695942381070798,-0.3471902326914569,-0.3599541962475361,-0.6039143688849468,-0.5815979772133091,-0.352203465620175,-0.29647707470233536,-0.5050413385515412,-0.43812826937321936,-0.23032707581577058,-0.1910506047064906,-0.21571812187738004,-0.1334617597287376,-0.04206001298190946,-0.37202325780168066,-0.6093214048166761,-0.5116778741876526,-0.2066475539408028,0.10509054624538967,-0.1899311228950927,-0.19709759963082218,0.03592638128643302,-0.1834396819220254,-0.006239279101894284,-0.27308701448626876,-0.4414979229293603,1
9.825,4.05,3.7,4.7,25.5,25.7,3.0,8.775,644.0,246.0,217.0,269.0,1323.0,1379.0,169.0,526.0,18.0,18.0,15.0,15.0,14.0,15.0,15.0,16.0,-0.4978880976414516,-0.3301222362296103,0.007447360135486045,-0.13488642727196706,-0.33513294356696305,-0.4501431159399673,-0.11720087991004927,-0.1908531363793352,-0.2929739176241044,-0.4686992242273616,-0.3770993149030966,-0.26719950625917616,-0.37592156540825916,-0.4690760846810659,-0.45810201871015105,-0.3913115567022899,0.05948708621566528,-0.221797223232356,0.24355037940528204,-0.255493980088333,-0.031609037034396756,-0.7238397658768009,-0.14276364777537467,-0.4819304559412966,-0.07477992671800641,-0.008941382784612222,0.2620270741982384,0.15418330249547565,-0.315348488832294,-0.206046123516986,-0.3918170159324473,-0.38675549994470615,1
12.05,4.125,3.475,4.325,21.275,18.575,3.025,7.475,764.0,249.0,218.0,260.0,1221.0,1072.0,194.0,490.0,12.0,14.0,14.0,16.0,15.0,18.0,17.0,15.0,-0.4619320882974146,-0.433288678398195,-0.25247961509629524,-0.16391114232492146,-0.40274973861522534,-0.3803802843392536,-0.07102069681788746,-0.28074072337704026,-0.5340275080007212,-0.3644555340321999,-0.2925546062159204,-0.2094225191620193,-0.45224190993840424,-0.3258521160224456,-0.24092374026807,-0.2528527661789773,-0.4112415428840697,-0.26732185392035746,-0.34957116552995826,-0.3088871363666228,-0.6178783755117162,-0.6189611226808903,-0.5492231254547795,-0.3559767409952691,-0.24084672864635476,0.3034645192170331,0.21941942729563307,-0.2443487443176611,-0.5802170872076716,-0.48824398083010495,-0.3151503589065068,-0.3525007786785932,1
15.95,4.55,3.925,4.425,19.05,21.4,3.05,7.0,981.0,253.0,268.0,274.0,1211.0,1254.0,167.0,375.0,12.0,15.0,15.0,13.0,16.0,13.0,15.0,14.0,-0.5428344483274251,-0.558460158811998,-0.5074143016969176,-0.28464990959738773,-0.3441750069059203,-0.3026731124080731,-0.46970033141945333,-0.07326005657730658,-0.44345884161834687,-0.3234809195119515,-0.41568651378761834,-0.14293855608757886,-0.38220234532127667,-0.33571404790224846,-0.3512715552726334,-0.16229814732397996,-0.45246233638574546,-0.4030181201680411,-0.2876854847770506,-0.25783188095230175,-0.21125708900859774,-0.4795258626200214,-0.336309388179093,-0.2691138219338902,0.0901189176186979,-0.2211306667974418,0.0020175402779063693,-0.2319440845641233,-0.1976499276404484,-0.2592909749571397,-0.2375460622807102,-0.2890386444694469,1
16.5,3.125,2.725,3.425,17.075,16.6,3.575,7.85,1040.0,170.0,146.0,197.0,1086.0,986.0,198.0,494.0,18.0,19.0,12.0,14.0,18.0,17.0,11.0,19.0,-0.4891614907074716,-0.6007825650459254,-0.31409222950560345,-0.27020906763305297,-0.17799538311342666,-0.1500521873299248,-0.21800415209447654,0.08367265004179204,-0.19140040037160524,-0.3093737665700958,-0.37870479910667004,-0.19639123138143874,-0.23609595933390842,-0.3100027514017955,-0.4960106025801091,-0.20389629812749127,-0.31279047906497565,-0.09537830227877048,-0.2650713100761024,-0.19769558033858628,-0.3508567391982639,-0.5945050669370243,-0.47575790852043714,-0.25813201579507267,-0.01770558858703626,-0.09742665199628096,-0.11361556486025635,-0.10723280799325281,-0.4907727877828095,-0.19183934451383905,-0.4033322144857468,-0.5003243635709155,1
12.825,3.925,3.175,4.075,21.8,24.175,3.0,7.975,842.0,245.0,175.0,220.0,1442.0,1439.0,179.0,521.0,15.0,18.0,12.0,14.0,20.0,18.0,13.0,15.0,-0.47876773936415984,-0.243840117670586,-0.20888119410830427,-0.19192956437598138,-0.37816523546248804,-0.27418016810897883,-0.34184146615558997,-0.3259482888491273,-0.41770143687641675,-0.5473434038414076,-0.5642085435255293,-0.39395722006018385,-0.5177685685148827,-0.5229123322252243,-0.7051298015725903,-0.3992155659432238,-0.5506626653795165,-0.48553632854600254,-0.4810597458191001,-0.5123651906720741,-0.764769699525619,-0.7966195441285856,-0.807372530540632,-0.7310090688092697,-0.20613660769033884,0.03572030059009214,-0.19800618596431835,-0.19241115001266962,-0.3461440280496805,-0.15808623197208133,-0.2849437047472514,-0.30083249201874834,1
11.05,2.65,2.325,3.05,19.9,20.025,2.625,8.175,730.0,161.0,141.0,209.0,1448.0,1223.0,183.0,508.0,18.0,13.0,14.0,14.0,18.0,13.0,12.0,21.0,-0.4157904338071088,-0.09903318644587222,-0.11769701092062489,-0.11645686560652595,-0.363978833677637,-0.20615667283518252,-0.2572019504891248,-0.3886760024659511,-0.3616291094151418,-0.31769191584122347,-0.3217044345788847,-0.1282961590615193,-0.5588946184147231,-0.4908284716260862,-0.4100673994519991,-0.3349934980632449,-0.6651759980894786,-0.3102407914537772,-0.281687934374338,-0.26811471497383416,-0.453654735056679,-0.3475502752995006,-0.5575518305000785,-0.32469885626877604,-0.3382631842909302,-0.029398287137932935,-0.2700754110892779,-0.5672154694245859,-0.31357958554975823,-0.2091028271339092,-0.17790506243824553,-0.3071566090409151,1
11.925,3.7,4.45,4.9,23.475,22.8,3.9,6.1,777.0,229.0,268.0,293.0,1418.0,1359.0,212.0,392.0,18.0,17.0,15.0,17.0,18.0,17.0,13.0,16.0,-0.4688886821619261,0.02166552375805461,-0.03444211023793885,-0.18492334075477657,-0.5620852031882738,-0.4826519472566406,-0.4705329045779497,-0.3490159488521672,-0.5472590742148311,-0.45433646461140703,-0.5364391203193174,-0.3150352677612447,-0.5174314308009749,-0.5463314662007032,-0.5252000080991697,-0.3799506077971157,-0.5488530895807268,-0.47113729412390454,-0.5203910460775999,-0.06925150848609954,-0.5300213791440831,-0.5060366583344779,-0.48873194874403364,-0.2908032408393693,0.11465784033258597,-0.053903027425761425,-0.19907032987203338,-0.0935328198526919,-0.10736544019976635,0.1456997114965765,-0.28703557814989766,-0.2770943739332071,1
12.1,2.675,3.175,3.575,19.625,19.325,3.45,7.075,826.0,132.0,181.0,194.0,1165.0,1229.0,183.0,503.0,18.0,9.0,11.0,11.0,17.0,20.0,14.0,20.0,-0.5581495387630319,-0.24189617809919378,-0.1747852438428207,-0.32749455882822875,-0.5236516305179907,-0.4730721568497974,-0.6369745677818986,-0.6569653141335571,-0.44498864774777896,-0.458428575191566,-0.422608779217334,-0.5087851187104887,-0.37630691022828766,-0.42458465016370806,-0.3790977238532797,-0.383075146054453,-0.5194096569018858,-0.4233010512444342,-0.544152268265874,-0.4118879497185021,-0.6731010745860656,-0.608995064920583,-0.7003465455236123,-0.6133738123930146,0.1200066802564156,0.11551426426382831,-0.25810654695148144,0.027716023372245054,-0.39034011856094386,-0.0482895079651067,0.02666744451320433,-0.25836135548791156,1
12.35,2.425,1.975,2.1,16.525,14.4,3.0,8.3,788.0,143.0,121.0,139.0,946.0,915.0,197.0,557.0,20.0,14.0,14.0,18.0,10.0,17.0,16.0,18.0,-0.5456547665741587,-0.284922105521199,-0.1440204105140938,-0.12486317798190807,-0.34016146328715646,-0.3399391701309458,-0.18395947530963092,-0.13969077342347927,-0.2345722798423326,-0.16033064434231803,-0.22925419916319736,-0.1312483885271675,-0.29162411833502294,0.06700314002004469,0.0765124484756916,0.12646699512682022,-0.4353428930338834,-0.4885921964495746,-0.4830342819203733,-0.38202848538090933,-0.3341302924251504,-0.296713175261679,-0.473980004789798,-0.12780926752330093,-0.424282664270864,-0.11850119129273481,0.028314477214693094,0.11553797080524583,-0.39404589007444457,-0.2715590624664259,0.02196395301440951,-0.15325323622946613,1
15.2,2.825,2.575,3.75,19.975,21.0,3.525,10.8,943.0,130.0,152.0,237.0,1224.0,1285.0,212.0,657.0,17.0,11.0,11.0,15.0,19.0,17.0,10.0,15.0,-0.48579033674429534,-0.39213503552857726,-0.32878246031074604,-0.1271186122734675,-0.09461265792567472,-0.4225843590171602,-0.1691835871552183,-0.21520141343869237,-0.26582016350839427,-0.30890945596618363,-0.3987904737358853,-0.051164528794957455,-0.670014316016064,-0.4691761405007567,-0.6264966685399679,-0.2734451901166623,-0.3487012367155255,-0.23011009432094293,-0.315759092315153,-0.037577403804313146,-0.5241991562117078,-0.369553965139114,-0.4779232057105874,-0.19821543542903974,0.14251902705630853,-0.028181782056612936,0.02314642798547408,-0.13340883716785867,-0.2955483066724677,-0.39383386296548645,-0.20734324915728627,-0.3501269670267879,1
15.0,3.55,2.65,4.025,19.975,16.925,3.45,8.95,890.0,216.0,180.0,260.0,1255.0,1190.0,198.0,532.0,12.0,17.0,17.0,18.0,18.0,19.0,17.0,19.0,-0.2520265682992975,-0.3139828358875825,-0.19724930711674135,-0.3410620422078295,-0.5552765557582591,-0.5023596574233828,-0.5618698185467599,-0.3701336224929295,-0.43490262807401825,0.05551271123062104,0.042134233181408014,-0.07487751949496706,-0.6825245184720832,-0.23119057543284363,-0.11149355696462554,-0.15153159460383983,-0.30948921222714404,-0.15284366407686156,-0.04697471708468513,-0.18178336869602255,-0.5698688087335403,-0.07011375179279279,-0.10502282493893157,-0.03797429893146353,-0.10550578128116439,-0.14143485662798816,-0.005440687463768967,-0.1293752466486172,-0.4036180978767097,-0.34601944934242446,-0.21409865298846578,-0.31316944563802196,1
13.1,3.125,2.15,2.825,15.65,15.325,3.275,7.025,811.0,194.0,102.0,159.0,973.0,872.0,198.0,428.0,16.0,16.0,8.0,11.0,19.0,13.0,17.0,16.0,-0.3919023223122811,-0.530777464943551,-0.2344501289120831,-0.4456929738027928,-0.2969706476146855,-0.37609399803072396,-0.2760232054952561,-0.11875410875190417,0.02021961795416736,-0.21573264658285307,-0.2797859627835011,-0.16361764472395948,-0.0909548258224601,-0.2296324326406287,-0.21593562279317124,-0.022621786407252816,-0.20683360659904546,0.007526521588142529,-0.4952260862494733,-0.19528382428833815,-0.15892430510510752,-0.24757440864450153,-0.4143391761767954,-0.1263439621630507,-0.09836935813902059,0.004965072756618878,0.10565305117148643,-0.12236763712585291,-0.44311084954237734,-0.43799476245845526,-0.12833606864297306,-0.2862989197722113,1
12.9,3.15,2.525,2.9,18.225,17.025,3.375,7.725,859.0,186.0,144.0,191.0,1045.0,1016.0,222.0,526.0,19.0,17.0,14.0,12.0,14.0,16.0,20.0,18.0,-0.4948418773117752,-0.34523104121104015,-0.296930862426538,-0.25290500305100755,-0.2664288321404984,-0.3110431274097649,-0.5225588315733676,-0.12546345769154055,-0.4035486104681547,-0.6640543227737783,-0.4249559590247173,-0.30752425291431335,-0.46046568681356725,-0.3619890490723991,-0.3175530998991784,0.03156522027562234,-0.516780420752729,-0.5689692372747908,-0.48490728866856236,-0.4131533203685451,-0.4077421802118247,-0.26619737513442066,-0.4328884406818802,-0.18825719766547067,-0.34535287611239196,0.0831472616773038,0.12574749612265762,-0.19861132093215478,-0.6632551459288155,-0.4421274638914,-0.311816827807846,-0.2745323737985067,1
12.075,3.3,2.475,3.075,18.85,15.05,3.325,8.8,828.0,195.0,146.0,182.0,1150.0,989.0,184.0,538.0,19.0,11.0,14.0,14.0,19.0,17.0,12.0,16.0,-0.4488462217815878,-0.16533758402502768,-0.14214458858542225,-0.26773801928322993,-0.4000378935879835,-0.3923497531355329,-0.2229587413004581,-0.10739395574121922,-0.16325967473727734,-0.46755661978728935,-0.05479524452384396,-0.2870314122378028,-0.21526505668028736,-0.3893184328633652,-0.11361286677951683,-0.11376316215692038,-0.39538229600768543,-0.4266029139420705,-0.2998621462786468,-0.2914987491181184,-0.6949782423039007,-0.6209000007042513,-0.46482224605801653,-0.3478100701993941,-0.37381129313016814,-0.42692531080523116,-0.3261697964195913,-0.14925869662468774,-0.48955817033756,-0.22829050388087396,-0.4560793631782515,-0.34866192327910883,1
10.275,2.125,2.125,2.175,17.225,13.95,3.575,8.45,665.0,130.0,122.0,125.0,1227.0,802.0,200.0,521.0,17.0,18.0,12.0,12.0,22.0,14.0,14.0,14.0,-0.4022601456071442,-0.21411131793800675,-0.37952525995722236,-0.40971144504931833,-0.3490245570631481,-0.1432830761293752,-0.18964841449073294,-0.19989472393178478,-0.25870471394948236,-0.3767397278115475,-0.008978888317202463,-0.27951857131752456,-0.014469259158667409,-0.2902893170242637,-0.052633486420444284,-0.09375537145638199,-0.6217947662876122,-0.07566675029093366,-0.006493492284451611,0.00449920550378282,-0.4645445009357981,-0.36239926345819595,-0.4425580742297346,-0.2773679696012553,-0.11781706091738485,-0.1146910592746952,-0.37115404325353013,-0.17495354214029604,-0.31229935083418253,-0.256003449859475,-0.3290441819030203,-0.2793813952080763,1
7.475,2.3,2.625,3.2,14.975,16.35,2.775,4.95,483.0,114.0,145.0,196.0,1020.0,864.0,164.0,290.0,19.0,11.0,12.0,16.0,19.0,12.0,11.0,16.0,-0.5557352854287656,-0.2846326185777218,-0.45143555643882205,-0.3870636331255225,-0.13626404821873236,-0.4410555642015119,-0.2605234134942081,-0.30151943673152776,-0.17710462331133986,-0.2891214322044673,-0.13475289698601609,-0.29196388469873685,-0.1326776584066967,-0.06615582000369825,-0.11732398362358262,-0.2471582927653429,-0.5857426886298875,-0.31219758202151426,-0.08860955388280607,0.08274593013898596,-0.355333880913308,-0.356447995415937,-0.3122032060380745,-0.08319573944416485,-0.17258042169465432,-0.047270506618770816,-0.14265963955954697,-0.18120464964355507,-0.23502349311280848,-0.24242271365514276,0.10430084349081738,-0.13117911646902217,1
9.85,3.025,2.8,3.075,14.95,16.825,3.35,6.9,685.0,191.0,173.0,197.0,1058.0,1123.0,213.0,399.0,19.0,15.0,17.0,13.0,21.0,21.0,13.0,15.0,-0.5327406652421119,-0.12326922321434577,-0.061185646861195986,-0.20572939335503287,-0.3880529684486845,-0.39758059739611395,-0.2685353247510962,-0.4309511181112078,-0.30950127811208317,-0.013190614049466615,0.03764615178308966,-0.10682869331143802,-0.3367116085987774,-0.11092483704079824,-0.1264508670916262,-0.1362696172164054,-0.43499538255611137,-0.13811769765683551,-0.24139491285668707,-0.008748531385637517,-0.564655885610868,-0.43543227177273314,-0.3106422356365165,-0.25150755992580553,-0.10495790325655163,0.03641822027240815,0.057333943763077086,-0.33532900222690887,-0.4077381290188709,-0.2555078884058507,-0.33073194106407244,-0.42586254670164647,1
10.7,3.025,2.1,3.15,12.75,11.425,2.725,7.175,661.0,173.0,130.0,173.0,834.0,726.0,155.0,366.0,18.0,16.0,12.0,14.0,17.0,16.0,15.0,18.0,-0.1645696492072313,-0.08249145904526377,-0.15944092472298038,-0.18909284391755,-0.2977009161243524,-0.1270341066921034,-0.010708335644760697,-0.2283061684712317,-0.0678506118673224,-0.019820795789905515,0.2340947599515159,-0.08179049717745228,-0.09192322514277337,0.042608417180319394,0.12179494904066722,-0.2567792509723894,-0.4373883292970762,-0.13530858988968889,0.007101503572604443,0.09955797349932033,-0.14612528317588108,-0.24782343512741778,-0.08994966878455621,-0.10784157258318394,-0.16044571587552095,0.05952551487106798,0.011221937542934865,-0.04307818972036366,0.08683082916776833,-0.3740984756399062,0.0909598448166822,-0.5555976848744701,1
6.475,2.5,2.925,4.15,13.675,13.725,2.775,4.45,383.0,119.0,150.0,245.0,914.0,627.0,165.0,243.0,16.0,9.0,8.0,12.0,19.0,10.0,14.0,10.0,-0.2176053262317434,0.01842235233557845,-0.09879995788249843,-0.20067180002551496,-0.0020027797984896695,-0.17735583610749833,-0.29323546383029647,-0.16350428384378662,-0.009118335161699218,-0.2368718642366979,-0.3312970889923474,-0.24820194205586982,0.05288118308877134,-0.2175388618908689,0.0324637876655817,-0.48903177503725914,-0.5988429088193506,-0.44904936229296954,-0.3648557689028178,-0.3029417611983007,0.05415321233549073,-0.2869483503535797,-0.3504184384938721,-0.3571743399029989,-0.13819736432353658,-0.286576150765937,-0.07981468105366268,-0.1936888563472103,-0.30724454445772625,-0.25280235019493824,-0.2639780178370434,-0.04583562990585387,1
14.8,2.9,3.025,3.175,17.15,14.675,2.4,4.375,980.0,152.0,185.0,187.0,1232.0,822.0,137.0,240.0,19.0,13.0,20.0,16.0,24.0,14.0,15.0,12.0,-0.4813188240336363,-0.25746700798489736,-0.3531423411936107,-0.27254978118162027,-0.03250066662023494,-0.22931610390960755,-0.3035100474790337,-0.3218414333319565,-0.3441895145015591,-0.26585922204282875,-0.02839920446847686,-0.12002764852861506,-0.3284190387621749,-0.4133267076059062,-0.15187849091336053,-0.1788785227333701,-0.6546596994558534,-0.13798468669179909,-0.3675301327859372,-0.4630180590290863,-0.3070825300368426,-0.15699785684496606,-0.3685427100610892,-0.20709117764745058,-0.08354450957014606,0.012363089524290148,-0.07840946606320133,0.08584579302966677,-0.17145557543252984,-0.4138379705814493,-0.2618794412074595,-0.1802671161757188,1
11.575,2.825,3.425,4.4,19.575,22.5,3.1,4.625,699.0,162.0,182.0,240.0,1213.0,1187.0,183.0,311.0,22.0,16.0,11.0,11.0,13.0,13.0,15.0,17.0,-0.18175182545379973,-0.24857183748727288,-0.1476171152652064,-0.08748148681469267,-0.21032159615725907,-0.04031463940129954,-0.269296590521935,-0.1996718022832508,-0.14324128193887226,-0.5073868512708395,-0.2976095579222052,-0.33318557655112613,-0.3496309758420676,-0.6638992128425165,-0.3563271358431162,-0.5132828227564691,-0.35159254981778254,-0.4406047864384475,-0.4674583837760117,-0.2576800427670586,-0.19744763880830546,-0.5403031315456575,-0.5158715833928409,-0.2677319275543941,-0.33304836430744605,-0.10265519061974122,-0.15842560120050728,0.08417649717325554,-0.2872483716040183,-0.07642606669664852,-0.11179960620082162,-0.28589359848627705,1
9.875,2.975,2.7,4.025,15.1,17.375,3.425,5.575,646.0,189.0,153.0,226.0,896.0,934.0,189.0,348.0,18.0,17.0,13.0,15.0,19.0,15.0,16.0,19.0,-0.4872385880197078,-0.4226394372463115,-0.2716056105581833,-0.3130146917659334,-0.27058184887496284,-0.19446374347696532,-0.07733697207117629,-0.43599268126463914,-0.3383591583474514,-0.4577214568396342,-0.43724646223113606,-0.31923473855126727,-0.3319466266341134,-0.314782996548913,-0.36321067701290666,-0.3445915692970484,-0.3159442946161077,-0.4946072278957471,-0.4474902476431498,-0.3806128754957509,0.010590358044584216,-0.49334945567220573,-0.3612221971289748,-0.20130887990785118,-0.16214995244034763,0.02886114839948223,-0.2510728803739279,-0.3969764843974951,-0.2475116613583133,-0.181124022921939,-0.016732783821080312,-0.19998893875298754,1
7.925,3.825,3.6,5.825,15.9,13.175,3.175,7.0,471.0,216.0,230.0,403.0,979.0,818.0,197.0,438.0,15.0,13.0,15.0,17.0,19.0,19.0,17.0,17.0,-0.19137403591532398,-0.043638745764222206,-0.11500693184480365,-0.3833596804494636,-0.3975132968277218,-0.38746658374853515,-0.5029684186659332,-0.356130034243569,-0.46302757126416655,-0.1480280341135531,-0.20448154694909304,-0.3565340158289642,-0.28557575407282937,0.04602692995941653,-0.21318065280195767,-0.39490272077682254,-0.46749329217089053,-0.42905760336481724,-0.19844015640125384,-0.2657009314453823,-0.42042271393034825,-0.24162844472855616,-0.2874239651256048,-0.41805770389007785,-0.10350310041397545,-0.09491192097407056,0.027775959094706044,-0.15870282186752985,-0.10515109467037959,-0.3507340170728219,-0.03503497904318981,-0.6113342236115982,1
12.375,3.475,2.875,3.625,15.35,17.65,3.6,7.825,730.0,200.0,177.0,210.0,968.0,1072.0,222.0,546.0,13.0,16.0,15.0,15.0,19.0,19.0,15.0,17.0,-0.17247991360847625,-0.23876669528248826,-0.29443855448946477,-0.3489390433184431,-0.4455440883821373,-0.40127387394298547,-0.5436588880748668,-0.35182250148742694,-0.44520884386530685,-0.3556284725106411,-0.358196087561551,-0.5413502975721808,-0.31916321413923343,-0.20624824673804423,-0.3208028686446443,-0.22664328794081398,-0.4387684205753034,-0.48177492614832884,-0.21549001234435347,-0.28798171654116983,-0.4883894142574351,-0.45836647938398073,-0.27463956227873265,-0.48099264281787657,-0.5604996734999165,-0.46913649883164715,-0.26343185785143564,-0.25623325508864114,-0.6197015722027235,-0.3063015625107207,-0.3057185349955323,-0.38025478386637523,1
15.15,3.4,2.775,3.025,16.45,17.325,3.9,8.975,911.0,221.0,165.0,181.0,1208.0,1148.0,250.0,586.0,17.0,18.0,18.0,14.0,22.0,17.0,15.0,19.0,-0.398807903695151,-0.5211566504968174,-0.4345002529369062,-0.2649159803803619,-0.4262352589865411,-0.4227165299778925,-0.23296291438799047,-0.37376494096186513,-0.4198774937306853,-0.23385479311498225,-0.15324228112548452,-0.2457727027230052,-0.30248435101846544,-0.2343753562747569,-0.2658332981768499,-0.2985765752846924,-0.962019890115326,-0.6674318418128726,-0.5485547990568287,-0.38912350349521657,-0.5250832499032503,-0.505857915759537,-0.2922848848746233,-0.4004476617111962,-0.6060877855385207,-0.36013381147718326,-0.4084679870752735,-0.21141645663909525,-0.4526857067389823,-0.15427920503385995,0.06109301612344509,-0.33621322242186275,1
14.275,3.6,2.275,2.675,17.325,17.2,2.875,6.675,717.0,220.0,147.0,175.0,1276.0,1053.0,179.0,388.0,13.0,17.0,15.0,17.0,25.0,18.0,18.0,19.0,-0.15972591297483202,-0.2868437567528748,-0.31738861822212694,-0.17810265462118463,-0.32213863759171046,-0.27628795647249976,-0.32908698380710366,-0.2778615537464542,-0.38525972868846087,-0.07691789153473691,-0.12043826401210297,-0.10519567996274196,-0.4905935541431653,-0.2119146023886277,-0.06577240592369057,0.06926103599751611,-0.8106586984743758,-0.5011180512269019,-0.26416914516785184,0.05497006784140126,-0.3136259747763634,-0.30784565872017466,-0.2690706491674248,-0.25725579473744414,-0.33865172072523925,0.07463079307803783,-0.047242376500090257,-0.006425527000112267,-0.2585448623253804,0.07882050211910922,-0.29689244428319,-0.5139089855496213,1
13.9,3.275,2.8,3.225,16.9,17.925,2.525,6.55,867.0,214.0,157.0,180.0,1144.0,1179.0,137.0,432.0,20.0,18.0,16.0,15.0,19.0,17.0,11.0,15.0,-0.2893919201754583,-0.11475190838063767,0.01779501220584812,-0.24321673291448673,-0.4313271077695753,-0.2558253895037626,-0.2106401561509043,-0.3282726425217941,-0.16375924401143027,-0.1605717064341899,-0.0296881909924599,-0.43193584041956434,-0.30276583314093697,-0.30793015366716736,-0.10862149760731063,-0.09640323541425246,-0.7188760996898785,-0.5450394833543991,-0.3260130104025848,-0.40151697395268604,-0.5988275337301895,-0.497749471257271,-0.368787134913919,-0.6066565639458905,0.05617896520989612,0.38759527706178176,-0.07834630875565977,-0.026058521745731308,-0.11401054556854161,-0.05059469173421334,-0.27542830223507725,0.1073471120138042,1
13.35,3.4,2.275,2.625,16.275,14.6,2.325,6.625,894.0,222.0,121.0,162.0,1035.0,936.0,132.0,393.0,18.0,18.0,13.0,16.0,23.0,19.0,12.0,17.0,-0.5495832758559516,-0.2847965678509016,-0.3288529935559913,-0.5305189623443982,-0.5208714990160412,-0.34017006215942397,-0.3305259482412217,-0.2788069720095502,-0.04350152105591225,-0.2961302805880095,0.02553881767483948,-0.34208929131746685,-0.3382032779938162,-0.15660583053999355,-0.1811630202682266,-0.20204777750833738,-0.434739468311599,-0.5320999100522953,-0.27574351535636016,-0.2831758204598013,-0.5170929964151786,-0.5506764127950332,-0.2974200685919749,-0.48506605239234235,-0.19936195020801636,-0.11396235988879294,-0.24886471184447295,0.09312910639068728,-0.2842060964729725,-0.13456651596043673,-0.19271458673332809,-0.13463294208243232,1
11.375,3.55,1.775,2.0,16.0,13.275,2.05,7.175,744.0,220.0,100.0,104.0,1028.0,833.0,111.0,487.0,15.0,15.0,11.0,13.0,20.0,19.0,13.0,20.0,-0.38139532777571733,-0.3466912896212419,-0.10302063553056658,-0.3867760619511108,-0.2072395370391736,-0.28843479397674243,0.0720895397951677,-0.3800093914609573,0.093953284140146,-0.1887325426614224,0.1121605479393062,-0.23030530452658793,-0.04690835581796981,-0.1964710418617362,-0.07717477565642852,-0.23770009107029996,-0.48007096071758437,-0.6053483417173273,-0.20433927181029102,-0.32121264779726716,-0.21786286405751246,-0.5331949831742865,-0.10195575342783975,-0.43912761877078194,-0.11286944223090616,-0.28069971332156585,-0.1542011913484756,-0.11107369509004848,-0.33515355712830686,-0.276587167506281,-0.008213514296046323,-0.22518567068452103,1
11.625,3.3,1.7,2.05,17.9,17.65,1.975,7.75,710.0,201.0,115.0,135.0,1203.0,1063.0,100.0,529.0,16.0,15.0,13.0,17.0,20.0,13.0,9.0,19.0,-0.2629640694284705,-0.3517524044146155,-0.06982849451724565,-0.3499767711265079,-0.6130018878055642,-0.6303885469605213,-0.5185262502504492,-0.36580592718034055,-0.27577765893453576,0.06855858653844701,-0.20222222984490681,-0.36564936194995384,-0.5302827127738676,-0.38487259217887415,-0.2799113696850773,-0.2780462225783718,-0.667624021502138,-0.3898766801960112,-0.24198326999790545,-0.2148040726215684,-0.5469995157909301,-0.5717710428592081,-0.5449203080458047,-0.3416935977769287,-0.05804186837039387,-0.11992203295458609,-0.08816628587517425,-0.35593596301383174,-0.4725077096084753,0.001830221475854721,0.02201595607801439,0.25671558993585825,1
14.125,3.35,2.5,2.725,18.65,18.75,2.025,6.65,954.0,197.0,173.0,189.0,1261.0,1217.0,107.0,401.0,17.0,17.0,18.0,14.0,20.0,17.0,16.0,16.0,-0.4634932036066226,-0.2180565533604378,-0.11041696188282965,-0.28981370837539155,-0.5530502588778953,-0.6714656228355559,-0.500072233415641,-0.45066146742858976,-0.4798371269321728,-0.3006669659889489,-0.1619939076251034,-0.2954844395484848,-0.5427217404941649,-0.32852664345489335,-0.34909733057063314,-0.32608555578152976,-0.9295865058079529,-0.6686184275709504,-0.3115598389507965,-0.22604515249816753,-0.7364663996860862,-0.6498525240704887,-0.4006935051153733,-0.23021744133206792,-0.06787023054531437,-0.1342895423640198,-0.08178014161877574,-0.2527582177985961,-0.123360967231859,-0.13983836116294016,-0.047548869763482736,-0.13958344563554265,1
11.9,3.35,2.55,2.9,19.55,18.7,2.4,6.225,742.0,201.0,147.0,168.0,1333.0,1208.0,142.0,399.0,18.0,19.0,10.0,12.0,19.0,16.0,15.0,18.0,-0.26847455828975375,-0.0439236146138824,-0.004079072858937025,0.021879160527115478,-0.49173019063641776,-0.500327422648644,-0.39893390219517855,-0.34034391452302853,-0.271790318409538,-0.46102011975573576,-0.12476077803299529,-0.45207597847696934,-0.24102341589239945,-0.2972560703450118,-0.2171390641918724,-0.3995791510469599,-0.7863962946589861,-0.4674800210548914,-0.1344006597397689,-0.13711527213878155,-0.377473104420125,-0.81070639658487,-0.24793666483326507,-0.5233386690033065,-0.15302798754241845,-0.10475789221895836,-0.02053344827532748,-0.057280044757969245,-0.3651999592255793,-0.10608435174169607,-0.16334312572281404,0.05357328054589989,1
12.95,3.2,2.325,3.025,17.15,14.7,2.5,8.15,859.0,219.0,143.0,196.0,1024.0,935.0,149.0,549.0,16.0,20.0,14.0,16.0,16.0,16.0,15.0,19.0,-0.35252600526078987,-0.21686108786673244,-0.052630640941704755,-0.10816305256097729,-0.270806987033874,-0.07285998951627608,-0.12398089541868339,-0.2537049831055126,-0.27561411533401253,-0.11188961510941083,0.10141006243403645,0.20220486698953213,-0.41736304702547405,-0.16976072225114205,0.01825875681377281,0.13109773404189726,-0.4904261007744818,-0.4416239773480158,-0.4881343209045522,-0.26890454586370655,-0.428298578426605,-0.3050132763087152,-0.42322809851396337,-0.33299244348722945,-0.35190716446296977,-0.30629481800558356,-0.3436989064876219,-0.30311702826425896,-0.7432580938005732,-0.4766629824033304,-0.3953518253325468,-0.2987562038364542,1
12.15,2.725,2.675,3.15,14.425,15.125,1.675,7.8,821.0,170.0,153.0,207.0,817.0,919.0,105.0,496.0,19.0,11.0,14.0,20.0,17.0,15.0,11.0,11.0,-0.5604212640947678,-0.41124238518486594,-0.14935637828491777,-0.09535789127919787,-0.4388694968357041,-0.4243519133506544,-0.4287040562146916,-0.20209197799553677,-0.19240696073344207,-0.36374998874897446,-0.05094742163875056,-0.09471224799114866,-0.6067594227046706,-0.6903047175924779,-0.4087064810464972,-0.3816231223349974,-0.3860093049886005,-0.40989546037185937,-0.4692748939707154,-0.46995517059554504,-0.6756919509075758,-0.6500194384151681,-0.7068449545861543,-0.6165592522088468,-0.38073217541614457,0.04164240223798887,0.2652717020627796,0.021759794157692407,-0.27970624162394075,-0.07301576625435405,-0.35621731129063167,-0.27727171977413767,1
8.925,2.925,1.675,2.4,15.375,12.725,2.0,6.975,496.0,171.0,109.0,151.0,1019.0,766.0,104.0,407.0,15.0,15.0,16.0,19.0,18.0,16.0,15.0,18.0,-0.11743208756632072,-0.4756742414540169,-0.1247474696769927,-0.34939359700242784,-0.47075722242138873,-0.47450489153352016,-0.5411832589050141,-0.3006840363485685,-0.19440067894569166,-0.30473006935919594,-0.0528192974362613,-0.2878675244851925,-0.5165403791829224,-0.2134730844948186,0.17354959257683542,-0.09402145039197632,-0.568283632586051,-0.5242521112351318,-0.1382262696645999,-0.15987387231098577,-0.2053833060069176,-0.505411363836588,0.05159600462196663,-0.1969097722203062,-0.20422637214733688,-0.03961004265009843,-0.257509677970471,-0.49165427332983636,-0.13555695563219913,-0.15762935284220295,-0.3494875096997047,-0.10237228554902311,1
9.575,2.85,2.4,3.325,20.575,19.775,1.95,6.475,578.0,167.0,126.0,192.0,1428.0,1146.0,108.0,412.0,19.0,13.0,15.0,14.0,18.0,12.0,16.0,16.0,-0.36325755838600543,-0.15914311978141363,0.13783437128949114,0.03307025111067213,-0.33714841709596516,-0.3596300234877124,-0.20808623604624768,-0.28547288309160584,-0.3888278505116635,-0.5635900546286846,-0.46570082380841205,-0.20280815711889105,-0.3204205568373726,-0.4959553648273689,-0.4001896040488836,-0.32958581902981754,-0.7819819937777421,-0.7294085472787077,-0.6640941621170605,-0.5540968849697235,-0.4046651187883585,-0.579995557130211,-0.5321521952221941,-0.2667296501442485,-0.012534684373496674,-0.44949042538131695,0.07563845594296094,-0.2866986602720748,-0.2811965462618615,-0.3791623776918346,-0.06382537735550046,-0.1216497187873262,1
15.575,4.675,3.225,3.925,20.875,22.175,2.1,6.325,942.0,322.0,209.0,272.0,1427.0,1444.0,133.0,379.0,18.0,20.0,18.0,19.0,19.0,17.0,14.0,16.0,-0.34328629316611653,-0.2467114303391,-0.14678928735492153,-0.31303845945409836,-0.7126155943606731,-0.36691973143884316,-0.3648562204458685,-0.5170757440249485,-0.7316329800394038,-0.6340605352400859,-0.49173943909643086,-0.5784955007666228,-0.7128170187885331,-0.44229386675824284,-0.5018655161600029,-0.510544454442265,-0.5643374258222499,-0.20314500304341332,-0.1755327391504242,-0.3725653081361869,-0.8030661778803858,-0.735884464743306,-0.6961760004834525,-0.5091908360427203,-0.3480175904960849,-0.27036175690590025,0.04679868935579563,-0.12469400969037198,-0.13689995165702906,-0.27072937127789015,-0.04680046498365342,-0.11375871445128807,1
14.7,3.45,2.6,2.975,19.15,16.15,2.025,6.575,806.0,209.0,159.0,187.0,1343.0,1063.0,121.0,391.0,16.0,14.0,13.0,16.0,17.0,14.0,9.0,14.0,-0.23213675837012,-0.10305799781614969,-0.4238755317540942,-0.2874953062067368,-0.37537308119666424,-0.22883116240629642,-0.2074959089003686,-0.4306617041495391,-0.35481202063278305,-0.07436650527878992,-0.052768151632455386,-0.3100380193596729,-0.4181579477483991,-0.059952658225537456,0.0309856460456728,-0.05103748917750809,-0.5623220532613274,-0.25103970741775095,-0.33975971330257143,-0.28293567066395625,-0.5533088108653587,-0.6528582268396926,-0.4170330344263458,-0.34958784183079944,-0.19902032390854146,-0.09445365927442545,0.22026137563470224,0.12923872013675244,-0.24836730304060012,-0.2454567457340414,-0.0911090650598506,0.035681181370169825,1
13.275,3.325,2.825,3.175,18.525,19.45,2.15,8.175,621.0,207.0,149.0,180.0,1057.0,1193.0,139.0,520.0,14.0,16.0,11.0,15.0,14.0,10.0,16.0,18.0,0.43234692621025417,-0.5093034381152031,0.08519027504764491,-0.1837449241318929,-0.30709613442749356,-0.1406331642211375,-0.1418030436235623,-0.28675111647102336,-0.11263075086331835,-0.25260194713232265,-0.38894046415384836,-0.04171210475006358,-0.22898116725749817,-0.19348623231150897,-0.3983969375128203,-0.07253684158170809,-0.2867934325572024,-0.06348491365856947,-0.5259661571693602,-0.29176085508515515,-0.2719192160937271,-0.12044775406347899,-0.38137961914997354,-0.20626851103897254,-0.2720396016875574,-0.15308032076687403,-0.07734389436939315,-0.18188151701023828,-0.1886677918695279,-0.17300047271139993,-0.04545774440472513,-0.25998324972492576,1
12.65,2.725,1.8,2.8,18.625,14.5,2.225,6.75,772.0,179.0,89.0,156.0,1148.0,769.0,136.0,438.0,17.0,16.0,8.0,12.0,19.0,15.0,10.0,17.0,-0.5263985759131261,-0.36148550173845084,-0.28906810822885515,-0.36127595910505605,-0.5414919461852647,-0.1747882622316357,-0.14192754707833588,-0.08842796924775578,-0.040284154087751156,-0.4776542984267888,-0.1782896127184406,-0.22531113085074778,-0.3184938999557881,-0.028778810001424092,-0.025380390467385015,-0.24154112842151645,-0.40484135804570154,-0.1708653913313218,-0.2881662044321323,-0.1839813555342987,-0.023203656082748193,-0.22337205267981658,-0.12290777519221056,-0.30691428717678393,-0.2216283083147673,-0.042474114057267365,0.19702030846000643,-0.03049267928414582,-0.31766822106580694,-0.042823649901453584,0.008496546215484842,-0.1709644412289121,1
11.375,3.5,2.2,3.225,17.525,18.65,2.075,8.175,719.0,223.0,131.0,187.0,1199.0,1172.0,126.0,548.0,16.0,16.0,13.0,15.0,21.0,18.0,16.0,19.0,-0.3750125461921322,-0.1028148637594429,-0.13727966803506814,-0.2757337891924275,-0.5441053064466225,-0.26760082696057147,-0.13361036361383224,-0.3088642831984471,-0.3354791336917463,-0.6383611611247519,-0.2637753932450785,-0.44470427445832855,-0.43971381793152536,-0.46998583888364087,-0.2912856010236921,-0.43247166890827504,-0.6591668608702149,-0.5754278973479837,-0.20783276916997542,-0.24159195186781227,-0.41423532899134385,-0.5465692307971789,-0.173117604113842,-0.37845262258368323,-0.5714743122272906,-0.5684632424612689,-0.2983719914132093,-0.08894952114152685,-0.48344765869854744,-0.29403357080347114,-0.27849966821067923,-0.07102388581793433,1
13.65,2.8,1.975,2.375,15.425,16.575,2.15,7.4,890.0,170.0,127.0,147.0,1019.0,1140.0,117.0,499.0,17.0,12.0,16.0,16.0,15.0,21.0,12.0,20.0,-0.4397662123390517,-0.25700845642907716,-0.26431284989857656,-0.3597204248788687,-0.32767986644271896,-0.3857619193009145,-0.20497997073438032,-0.19490791418743342,-0.34658314326921347,0.012369179438737665,0.016121931221618445,-0.12136766426010165,-0.42021508124212914,-0.15267616496548164,-0.061266360135251954,-0.24613526966927043,-0.6883509899181234,-0.5402991281237827,-0.5065845630229375,-0.40738348157570203,-0.6001799277511121,-0.39888467243456815,-0.46744051757432625,-0.4385138501567915,-0.31954604297602635,-0.41967545357430236,-0.15676645528712949,-0.012346921138953066,-0.44649611841386505,-0.33821544339650667,-0.29434534410106655,-0.2209721363811063,1
12.425,2.375,2.8,2.65,16.275,15.725,2.275,6.7,794.0,125.0,160.0,172.0,979.0,1014.0,131.0,425.0,13.0,13.0,17.0,17.0,17.0,16.0,12.0,19.0,-0.2025864974585756,-0.08574612082072104,0.12592623684206755,-0.2872479631829313,-0.17375189912365394,-0.13953600119995682,-0.3638021455769555,-0.23033507456170516,-0.3101845594734767,-0.20291194615283892,-0.25303905978951396,-0.49335587867634956,-0.593541263319578,-0.2864950951833008,-0.0004473993371436921,-0.04734079998492058,-0.4411186999224549,-0.4692693626682018,-0.2808432871462616,-0.41499726566662914,-0.38008811335936615,-0.21919797071813202,-0.3002359501862265,-0.3673208293945569,-0.042131276301671246,-0.286454443898959,-0.2548187926376567,-0.1521704868646844,-0.2975315409174269,-0.1906025587592318,-0.058792442138332075,-0.4222251487347918,1
9.625,2.55,2.475,2.7,17.8,15.4,2.975,3.775,523.0,147.0,151.0,158.0,1171.0,935.0,175.0,197.0,13.0,13.0,15.0,17.0,17.0,14.0,15.0,9.0,0.030705675953994684,-0.09199469710401567,-0.14744434290301703,-0.1369364162312209,-0.30343852604263577,-0.5320550208396929,0.03393937803916473,-0.3502869382744544,-0.2079187453583405,-0.14988188665182278,-0.07385668010581617,-0.09351457897066674,-0.2314094539007272,-0.05768245142535068,0.07950866086007062,0.16355702239402164,-0.39553063452772924,-0.506280632089502,-0.20233907206055382,-0.37599970122145426,-0.1828958323651748,-0.5675068597133405,-0.23899326541845972,-0.3376467083034257,-0.3289902478879167,-0.3775608909751123,-0.2577978830127454,-0.11143178476265857,-0.008821542623643147,-0.34972997059107963,-0.043267138115713095,-0.03698640990894138,1
10.625,3.3,2.7,2.85,17.05,17.35,3.425,4.05,581.0,188.0,158.0,147.0,995.0,946.0,213.0,240.0,16.0,12.0,14.0,14.0,14.0,14.0,17.0,16.0,-0.13014059362133149,-0.26042546028114,-0.08788314228495119,0.010261002789935697,-0.526484776756321,-0.5837904557307081,-0.27443694989664585,-0.2922244118644446,-0.2768193135701373,-0.2526065390628654,-0.2610604289353403,-0.4732710749583425,-0.2814077450342586,-0.3980977402408918,-0.3422702217822199,-0.23289810923089643,-0.39882672916759304,-0.5289214270524654,-0.4242637294318624,-0.5045572303484945,-0.11742654534062633,-0.4763953559043472,-0.37796114917185164,-0.37099992746837634,-0.30072435984804735,-0.21342300032586883,-0.16306402653091093,-0.19301070456840105,-0.41127544228780527,-0.3315147703596043,-0.11378511001142706,-0.03267621804719477,1
9.125,2.875,2.1,2.225,20.25,18.975,3.25,6.325,601.0,180.0,114.0,126.0,1206.0,1015.0,207.0,394.0,19.0,17.0,14.0,12.0,16.0,14.0,16.0,16.0,-0.37958965469114453,-0.054886208637254845,-0.3241100642083959,-0.42504459191836236,-0.48007167780747645,-0.24478664621688245,-0.23430057535247548,-0.4105658724225804,-0.32186838648018734,-0.23400142218518263,-0.3388787950276622,-0.4333576511354257,-0.2046242978119708,-0.2537858433236171,-0.19357860638628768,-0.0018006882280706552,-0.5378201321923028,-0.4290408346989831,-0.48525694932161334,-0.5587949733187146,-0.29868942018800265,-0.39071609449874595,-0.40175535879382546,-0.5132037677411335,-0.4314210766663703,-0.23448426770842634,-0.057571380485192475,-0.16369204243660274,-0.43805935309862165,-0.09957287947238207,-0.1822092812939746,-0.2854707358647967,1
13.275,3.95,2.075,2.05,16.15,18.275,2.575,6.35,922.0,265.0,121.0,121.0,1010.0,1093.0,139.0,375.0,19.0,21.0,12.0,14.0,19.0,15.0,12.0,15.0,-0.6248805980581535,-0.03838605679801854,0.28576719239072473,0.013528641692510958,-0.3957451720694366,-0.32093863148018614,-0.18595934304988734,-0.4364492810867369,-0.1638994105774911,-0.18286004499574568,-0.2063908874852784,-0.32545337348035774,-0.16726011713393368,0.013960713749515054,-0.3015863552387074,-0.19647254732490146,-0.5525031139417044,-0.7004283594763979,-0.430996078806866,-0.38249462680404656,-0.3425580812495103,-0.5157248509408985,-0.41711571806274456,-0.32661898129967326,-0.3185134251334393,-0.41421909507950755,-0.2981353883213927,-0.23722556719359353,-0.08101949982642315,-0.2658430328413967,-0.16882957441464286,-0.2219923121966941,1
12.625,4.225,2.0,2.0,15.825,14.825,2.6,6.55,740.0,283.0,131.0,127.0,1024.0,936.0,146.0,392.0,15.0,17.0,19.0,13.0,18.0,16.0,17.0,20.0,-0.2421715709397767,-0.16596710447758417,-0.23032027590581236,-0.07437811899998009,-0.6657989554587677,-0.46192142181224494,-0.17508633001407772,-0.19631761675870857,-0.2789720976108886,0.06028991469845996,-0.15049791412106575,-0.014020878711850406,-0.251348312511016,-0.09875006634383525,-0.18828641197592672,0.1335753785659225,-0.5970194027028706,-0.45830863356639284,-0.23995395853887536,-0.2741499567803954,-0.3308196433483789,-0.13595792009409965,-0.49136966080952155,-0.34661858926771744,-0.3444872392976338,-0.18862198454098736,-0.28562256548070325,-0.40889410942738647,-0.3858546142241079,-0.3550258927267381,-0.15599463509806774,-0.12981888969933003,1
12.425,3.575,2.45,2.4,13.25,15.25,2.25,6.525,660.0,199.0,124.0,113.0,886.0,1055.0,130.0,442.0,14.0,12.0,12.0,11.0,16.0,20.0,10.0,18.0,-0.15380663210709913,-0.1146545546725614,-0.35567465911752916,-0.31808145259733606,-0.30791987832991236,-0.383403788936331,-0.2857077570933333,-0.3201103212272285,-0.33294945945412785,-0.37183315271151035,-0.5637750824110802,-0.34535808257814743,0.017019680251261844,-0.26959844996303756,-0.3596658506603033,-0.04413988824746528,-0.8239501631267973,-0.6001283766972694,-0.5245977134488333,-0.3345859968135962,-0.5742261066144528,-0.473475971902028,-0.4908145038976518,-0.32472404995838827,-0.35893279780182774,-0.3876190033144342,-0.17178550046426969,-0.32343875149347157,-0.3369220160734145,-0.2553863093236831,-0.11432710077966375,-0.27638185329837683,1
14.2,3.675,2.65,3.3,15.075,17.225,2.2,5.175,907.0,231.0,149.0,178.0,982.0,1092.0,120.0,325.0,18.0,16.0,12.0,15.0,21.0,17.0,13.0,19.0,-0.3628485033928202,0.007766295606086946,-0.5088636374522069,-0.2945987651126552,-0.42194112821662444,-0.355245268775229,-0.34700554162398106,-0.4566081455853441,-0.4002887355464865,-0.4732143455223169,-0.36123472166339465,-0.1126762088644724,-0.47754077584129007,-0.5607050502904716,-0.33643669434455853,-0.3242058921212762,-0.7402154811519074,-0.6053027669690533,-0.46125556474851415,-0.31158149285925524,-0.5024572673174483,-0.568375314957506,-0.5246472541883013,-0.16297615726813305,-0.33953898091822915,-0.5231449486070977,-0.45920252634050335,-0.1720257242616773,-0.08860064911070674,-0.3734680567425888,-0.06283660852830673,-0.048110512914658746,1
13.525,3.9,1.85,2.75,16.45,14.7,2.1,6.475,712.0,214.0,100.0,151.0,1111.0,965.0,115.0,434.0,13.0,11.0,12.0,16.0,17.0,17.0,14.0,18.0,0.019735175461813786,-0.26740567061946025,-0.24170129346530367,-0.29380063439631754,-0.05192619880519126,-0.38224560349808867,0.03915851345002778,-0.3398897496953987,-0.11675354371463285,-0.1059729323690525,-0.28573639600570905,-0.011021725371514147,-0.36869145562039846,-0.33295155697154566,-0.3144941328388159,-0.3406585749935679,-0.47200031499738454,-0.09482762366214095,-0.1735125716193319,-0.4400908685777154,-0.5069699638232149,-0.357253796827656,-0.3189935894702812,-0.32236343539304435,-0.20480562968628746,-0.49329182813614936,-0.08512330634448899,-0.23080203353717393,-0.33410224924167775,-0.32007710517101506,-0.02758531468243047,-0.18490723076882906,1
13.725,3.825,1.85,2.35,16.55,18.95,1.75,5.45,838.0,218.0,114.0,137.0,1166.0,1305.0,94.0,352.0,11.0,15.0,12.0,14.0,17.0,22.0,13.0,15.0,-0.4008495122992871,-0.3670567316485702,-0.310031224677859,-0.4518420855316694,-0.3663739918290136,-0.4904597438270729,-0.2259118689199357,-0.33233036801700727,-0.35677633591041114,-0.5186395282207412,-0.23115212486603737,-0.38648565376149074,-0.2282325155086071,-0.43183383506958894,-0.11603688588726484,-0.3712280079582121,-0.6308152962681477,-0.33897128897127804,-0.3756222471025677,-0.3742322291955802,-0.6332969766402763,-0.26244326197825474,-0.07060864018357217,-0.2470013715205479,-0.21658388791217606,0.1886014574216338,-0.17160397459862003,-0.2262007156869429,-0.06134093152482487,-0.09948744818870961,-0.15820905240375507,-0.10955340717380814,1
10.55,3.625,2.125,2.65,19.625,19.325,2.025,4.2,636.0,220.0,103.0,131.0,1279.0,1163.0,123.0,283.0,17.0,17.0,10.0,12.0,19.0,16.0,13.0,17.0,-0.13888952950475092,-0.3259330414993318,0.00917680938111451,-0.09205191002337014,-0.3864536229503401,-0.2538382306878079,-0.2636674762684962,-0.2974367314501246,0.028306939909057655,-0.14301218487842007,-0.22652964898662048,-0.2229945000320957,-0.12095079348990705,-0.38069522610313516,-0.25289707333370703,-0.2501112940323841,-0.5722584260571932,-0.2935943947415133,-0.3740598115252994,-0.283266506324054,-0.4514925592651908,-0.11008178797996193,-0.43119278258435134,-0.37594354138386304,-0.4408942105330704,0.051079478591705266,-0.13838350792311704,-0.23483632490960057,-0.4325750073005691,-0.334195618944829,-0.16962788238870238,-0.2776499403085822,1
15.4,3.6,2.475,3.05,17.975,18.325,1.875,4.75,1050.0,221.0,147.0,189.0,1249.0,1188.0,111.0,312.0,18.0,13.0,16.0,16.0,25.0,19.0,12.0,16.0,-0.45400087592358096,-0.3107905348111072,-0.2522067748026613,-0.4537262286010557,-0.4892090801765798,-0.32383524872237307,-0.4168194511812391,-0.5244366645202789,-0.38260544389462786,-0.14385404437370836,-0.2837789467262305,-0.4272347617070357,-0.48024694133385326,-0.1343490577142692,-0.30315521018731595,-0.4301932695037857,-0.6741666706802849,-0.22678121771829,-0.5440032586380208,-0.4632708545374398,-0.6274329896704164,-0.2603082282744695,-0.47863095520596927,-0.5162172619427199,-0.40819126296752206,-0.20784555829294696,-0.3102186655278058,-0.277466243428449,-0.6542009252775531,-0.40663286838686924,-0.27605519453747734,-0.23088909765254953,1
9.6,2.45,2.075,2.425,16.6,15.7,2.2,4.5,535.0,129.0,123.0,163.0,1138.0,1031.0,133.0,264.0,12.0,11.0,16.0,16.0,16.0,18.0,14.0,14.0,-0.15427615188100433,-0.3434021242726284,-0.28455909408979013,-0.06860875810995908,-0.1538564533279555,-0.3540561237318563,-0.26616156692166226,-0.44179009438226513,-0.4003310055249657,-0.255669334914702,-0.32105666564995,-0.11512321777495196,-0.590338841846989,-0.14368448516187074,-0.19788511014134227,-0.2936477079428822,-0.5771269492107028,-0.4419025068702676,-0.37353781067223574,-0.3242892939091564,-0.5860506417514006,-0.3897499017559522,-0.42213453398217027,-0.41616941057545803,-0.47853379593128076,-0.11577767717767497,-0.2128273815645991,-0.08533454122672815,-0.3072641966459402,-0.6363035178665463,-0.28115032498010206,-0.36075334166728373,1
9.875,2.45,2.25,2.725,19.225,16.975,1.95,4.275,628.0,143.0,139.0,175.0,1207.0,1058.0,107.0,283.0,17.0,13.0,11.0,15.0,16.0,18.0,12.0,23.0,-0.26096827409874274,-0.33661245200948414,-0.31811113509792915,-0.32324649937018857,-0.10843570874358892,-0.32582476656777537,0.01612940123130034,-0.28233541572708526,-0.4921869486856903,-0.5686630343662792,-0.43498678994832235,-0.3706156504682603,-0.3960629587687852,-0.3462425942555244,-0.26861369850202166,-0.49420472102864904,-0.7147166100564356,-0.6634185875763988,-0.4950968400227502,-0.30377130624091564,-0.5934617395722791,-0.5915161886925405,-0.5515829511001966,-0.3561620778763304,-0.27302773568342703,-0.08883831203236513,0.05420211561917264,-0.12190122426942385,-0.5140043926276999,-0.16080322031096694,-0.037379173646241014,-0.260402682049466,1
12.95,3.125,2.0,2.7,16.8,16.375,2.05,4.625,757.0,200.0,110.0,166.0,1074.0,1079.0,145.0,345.0,15.0,19.0,13.0,15.0,19.0,19.0,18.0,22.0,-0.22780121159812,-0.3574653324547342,-0.15399459281759245,-0.32839968070196274,-0.6847176809425874,-0.528694999610089,-0.3419088533397998,-0.41386549797567507,-0.23600428234060966,-0.18360152955599876,0.2568606324070117,-0.16615467674254128,-0.19585390311962966,-0.25271426310646916,0.1922955068955908,-0.2485348562057684,-0.5778746260301187,-0.524658156794142,-0.43939669052463565,-0.539683340633821,-0.5093980111149292,-0.33392309065892817,-0.1871924461850616,-0.31725102797287685,-0.40815734782971436,0.06971274056730048,0.03439231040274548,-0.13147048737588563,-0.7973473478437121,-0.20059679241337272,-0.17867156354769675,-0.1054222435288321,1
14.85,3.375,2.2,2.675,14.425,14.0,1.975,6.075,970.0,197.0,116.0,168.0,930.0,811.0,118.0,422.0,13.0,13.0,11.0,14.0,15.0,17.0,14.0,21.0,-0.4259234065511387,-0.26586135489437857,-0.10274900053405124,-0.3650841573337663,-0.45812258560119384,-0.5504785310056636,-0.3913935918695617,-0.45555183233720786,-0.1895719516654245,-0.44618699475111706,-0.14644353349792005,-0.3723383508728583,-0.4266378484043299,-0.3155351303051165,-0.02748753234879161,-0.07667637490737626,-0.5100561143323149,-0.34533859707593695,-0.45912825831322457,-0.3300000727455699,-0.20833091390369862,-0.584678641327922,-0.0014664991066996621,-0.3370347437681463,-0.27417860829495144,-0.01641258682291809,0.03599317679364779,0.053552679952879025,-0.3880671937169716,-0.018413650607101324,0.027471596626826973,0.049327890373141725,1
11.65,3.475,2.275,3.7,15.275,18.125,2.0,5.95,664.0,192.0,112.0,178.0,985.0,1108.0,119.0,351.0,17.0,10.0,12.0,11.0,20.0,16.0,7.0,19.0,-0.1529774076063464,-0.24341189747695122,-0.2196766772401287,-0.26772183399181504,-0.4300580246088373,-0.5631630810043359,-0.5042709086669354,-0.5715371260640868,-0.10592732281893837,-0.2843483450619614,-0.2587835125254899,-0.13664409429256322,-0.1301256023965499,-0.281062236840833,-0.1957978562985411,-0.31183152948104204,-0.760308787069044,-0.5219634771507464,-0.5326182000493227,-0.3794457661203898,-0.5155011660804114,-0.5797393400644374,-0.46881089407557774,-0.41286798319545126,-0.22411397934048263,-0.11318722262700788,-0.1775185813181986,-0.2526084926529684,-0.16587168194066929,0.013652986715029904,-0.08060796299695316,-0.19125259607134532,1
12.85,3.325,2.3,3.4,18.65,20.05,2.3,5.4,884.0,202.0,113.0,182.0,1199.0,1137.0,137.0,335.0,21.0,17.0,7.0,14.0,17.0,17.0,15.0,17.0,-0.32314622796515424,0.03884219854062368,-0.12140476670819356,-0.5153614355565899,-0.1841557432747095,-0.28028616533690986,-0.11303630414611808,-0.43752598320845365,-0.08070142145436773,-0.34812893708679027,-0.28062914304861614,-0.373883615386065,-0.2720871940146144,-0.31211097150831435,-0.4501981386464604,-0.3385440007831558,-0.7223262171126646,-0.6583427755613404,-0.523636814018271,-0.44509035880119635,-0.3931493947422208,-0.5985822108989586,-0.4710573829867415,-0.5502881274054428,-0.3675082485033825,-0.09918529534827904,-0.16813858185343564,-0.21976246403120622,-0.4710763396082377,-0.39179739897757315,-0.2384651616771482,-0.47679660558849296,1
15.75,3.45,1.9,2.675,20.075,17.875,2.15,8.075,1079.0,228.0,99.0,141.0,1287.0,1208.0,131.0,479.0,20.0,17.0,10.0,15.0,17.0,17.0,12.0,13.0,-0.3608776902333509,-0.04157574061402564,0.2140157214298173,0.17379914287646372,-0.5362962600349341,-0.04981156302042498,-0.17635484552364136,-0.3263456888088741,-0.09839787297174639,-0.4218610839123659,-0.06721828254204636,-0.22076647533836136,-0.003474526301536972,-0.3043878811032046,-0.15412172220567855,-0.0943724150220987,-0.7602895709230416,-0.5883123026164069,-0.31008530443640087,-0.29765553514385246,-0.6797016403385678,-0.5219023764311139,-0.3788297539116472,-0.26817375366509755,-0.3476207332618817,-0.25206889396420923,-0.35058304309332233,-0.32830967644346926,-0.46945448549570223,-0.4385875287072698,-0.34231913933355196,-0.5078643535237397,1
10.95,3.525,3.025,3.725,15.625,21.9,2.2,6.05,687.0,237.0,169.0,208.0,1003.0,1352.0,139.0,384.0,12.0,18.0,15.0,15.0,13.0,14.0,13.0,19.0,-0.4608785106548135,-0.31801452446104034,-0.28805048982032566,-0.2682536366311031,-0.4666624867213248,-0.3269171234661586,-0.17165459426569468,-0.33471906038930854,-0.4037233345379168,-0.41987110626054086,-0.18825080101885652,-0.3176494049781453,-0.40978682889653906,-0.34973906970855245,-0.20214998696138464,-0.35148744963504086,-0.6077130711362204,-0.5935452246046163,-0.5516411812638891,-0.32172317507372084,-0.4806578049461964,-0.4366803894315047,-0.519470924032153,-0.3586839921186675,-0.20916608527351319,-0.009285806030679314,-0.5038686375909318,-0.09013852177967258,-0.3894210072077704,-0.061748719952145134,-0.10257888008924443,-0.0709920165498004,1
10.225,4.15,3.025,3.475,24.0,26.25,2.25,6.475,593.0,263.0,150.0,188.0,1398.0,1418.0,115.0,434.0,15.0,21.0,11.0,14.0,18.0,14.0,12.0,16.0,0.004757966834381953,-0.23513430519521367,-0.10546460700229081,-0.24986026371095113,-0.21361807521555057,-0.23489031632265267,0.046502338700454116,-0.3543191896010858,0.04671952819404044,-0.37454036042630834,-0.1291086076790253,-0.258640620298972,-0.3413418543135457,-0.34911392674362285,-0.4338437213674187,-0.31512962121147503,-0.26316508983924397,-0.7008458068473584,-0.25237483781427306,-0.46706833740993037,-0.2201473203558752,-0.4787762742464533,-0.35054546256456315,-0.4234512025409638,0.009590643520507505,-0.13601947943647513,-0.3508980250979595,-0.09158949861804583,-0.41866935080105605,-0.2947437944927697,-0.23099576702343408,-0.009722072845260584,1
9.775,4.1,3.175,3.45,21.275,26.05,2.25,6.325,543.0,252.0,163.0,179.0,1317.0,1579.0,139.0,346.0,16.0,16.0,16.0,13.0,22.0,19.0,18.0,13.0,-0.22460897188436818,-0.44249082122051536,-0.3311088012301018,-0.19142314521953588,-0.5468133649756358,-0.4774610494396628,-0.20582516126517023,-0.2884254420800924,-0.2108803165995589,-0.28999767029167883,-0.4649370408997289,-0.21181338609860362,-0.21358810618109178,-0.32003757030829266,-0.5044430721068728,-0.14226431501133244,-0.4247232614813839,-0.4981510610261402,-0.3126460765812061,-0.2628934677684143,-0.5077086108840512,-0.5351738865988274,-0.5145403917663791,-0.4098129595930489,-0.4721231906701888,-0.13271192821290914,-0.17635374615419763,-0.12022161077096252,-0.024606728196580913,-0.032451867445760806,0.17107876818722223,-0.03410422059834307,1
6.875,3.325,2.4,3.45,14.45,18.05,1.825,3.825,428.0,215.0,149.0,205.0,958.0,1098.0,105.0,190.0,19.0,19.0,14.0,16.0,16.0,16.0,11.0,11.0,-0.37279768833890925,-0.4633821249357932,-0.31372389516317967,-0.3668305643620477,-0.5465541377045355,-0.3714584355138653,-0.3289851438688381,-0.3086133606867118,-0.23976531592325276,-0.11532841029173127,-0.20122086093974076,-0.23061923504931697,-0.30148288047331795,0.025532723394234885,-0.14990613193710312,-0.1511666065161103,-0.4298990279362545,-0.39140918879642883,-0.09281031074629482,-0.0959433704903465,-0.22999765154871954,-0.1851228148205607,-0.11593366830497401,-0.2687517106474841,-0.23573796919197387,-0.0317297146130759,0.11463347258030503,-0.06399429733539445,0.21422779539422307,-0.3253960108300454,0.062234762461411075,-0.12930285098596517,1
10.7,3.775,2.75,3.6,12.9,15.15,2.225,5.8,666.0,257.0,158.0,220.0,686.0,814.0,118.0,373.0,18.0,17.0,14.0,20.0,12.0,14.0,11.0,17.0,-0.12192859524578299,0.08857851094446008,-0.032882136215349286,-0.1197555717274237,-0.5974744190628374,-0.509185881069934,-0.19298177015270654,-0.30944596298878413,-0.22630244489013898,-0.10731318463479252,-0.08569997746071861,0.03154184044064021,-0.34036343217297726,-0.10876114275025486,0.009154662903999983,0.15853982940902092,-0.1373907980524999,-0.5162356828950156,-0.3130548452139303,-0.10631725185686768,0.08395197154180477,-0.24694963641376766,-0.20586817787055744,0.21560648211208583,0.08433765007086494,-0.309470785625974,0.1751543781686556,-0.21820700172126603,-0.3949687716140444,-0.33944315205632286,-0.04258477929190316,-0.13428624937168746,1
12.175,4.425,2.675,3.15,16.525,17.025,2.2,7.55,899.0,292.0,161.0,197.0,1160.0,1067.0,122.0,484.0,23.0,16.0,12.0,16.0,22.0,18.0,9.0,16.0,-0.6578812716350978,-0.24059549988742512,-0.2938181726052943,-0.17599323826096383,-0.6129354183246781,-0.4939284801147175,-0.2824690892044451,-0.40340264766993306,-0.34906730917208784,-0.09848958168639908,-0.25988842921916316,-0.3019834426828198,-0.688191061606698,-0.5723703783536007,-0.55149356921063,-0.47019636871011034,-0.4885839460064198,-0.15703111422207439,-0.21870101169486864,-0.17069684623867676,-0.4087542642813743,-0.19312704227333674,-0.3363627733319263,-0.24730263999621738,0.06751019551001644,-0.112284363740587,-0.03613435228117254,-0.2635291477328386,-0.4676489403015693,-0.3953847459147174,-0.18642245463335563,-0.30472384929166496,1
13.275,3.4,2.75,2.675,15.3,20.0,3.025,7.075,963.0,197.0,138.0,151.0,942.0,1197.0,171.0,433.0,23.0,19.0,12.0,15.0,17.0,17.0,17.0,18.0,-0.7274237591073647,-0.29291249063004865,0.18715237494772505,0.16211246828205775,-0.3227513223977736,-0.3749765687231904,0.13789405333283747,-0.07559097602595498,-0.16366511878842022,-0.3784722112118546,-0.25992239960030544,-0.4754682888943793,-0.4470249768498301,-0.47693209940178377,-0.23889505979239373,-0.19485496220663445,-0.5117744421956859,-0.44781387738324013,-0.35849065790608603,-0.3498755631344467,-0.41116425829035186,-0.32492223583749547,-0.32385134878101624,-0.47410551935389966,-0.28553870905357104,-0.09540605445991802,-0.20260242542566073,-0.1914068735707084,-0.33947723475799346,-0.19943393433059267,-0.07201476134747532,-0.2037831744368211,1
13.25,3.0,2.325,2.7,15.625,19.375,2.15,7.275,844.0,184.0,135.0,144.0,1083.0,1177.0,125.0,456.0,16.0,12.0,16.0,11.0,16.0,17.0,10.0,13.0,-0.41971336146352084,-0.20254905889495964,-0.18259705164661436,-0.17870326850729829,-0.2332644158348914,-0.2847479264612155,-0.03090651872685635,-0.1717395453157018,-0.26213004858190714,-0.1711617098881852,-0.10393109968048184,-0.27646881836645537,-0.11593001571247118,-0.02183121562463234,-0.12380902931346566,-0.21392902237897285,-0.8295368463642738,-0.6579969034916143,-0.4818726288400157,-0.4945099628574049,-0.5886487201159645,-0.6049697412549823,-0.4961761630588507,-0.45380456699012683,-0.19175521339181523,-0.03586871488996937,-0.11337066551127015,-0.05422323779291219,-0.07079063844354166,-0.08450574890221818,0.06081306301003729,-0.16159835903514144,1
12.1,4.6,2.55,2.875,19.075,22.8,2.025,6.325,729.0,301.0,149.0,151.0,1442.0,1597.0,129.0,353.0,14.0,16.0,10.0,10.0,25.0,18.0,17.0,14.0,-0.23597696310068617,-0.19468502726558296,-0.2271060762108514,-0.039371104955387384,-0.616118544822878,-0.4045710690308065,-0.30900872594162637,-0.34114793386764086,-0.2668659669953977,-0.2776152819208141,-0.04311423297970051,-0.2099524959445922,-0.13383541150755052,-0.07758087749495644,-0.2277737831018096,-0.0030475428969826282,-0.8025113039590159,-0.2574410942888835,-0.12272204350072746,-0.16078366870146577,-0.673099020567083,-0.47189663080709515,-0.24886413858473946,-0.27125372247600443,-0.44068793928885314,-0.11017032698513547,-0.286085619822623,-0.41523112153519615,-0.14588763503117008,-0.17331821428945587,-0.07733743198889877,-0.3098011782259357,1
13.4,4.725,2.5,2.85,17.75,19.05,1.925,7.3,780.0,297.0,138.0,157.0,1223.0,1175.0,111.0,412.0,15.0,15.0,11.0,15.0,18.0,14.0,12.0,14.0,-0.00963692993983967,0.036738009424474916,-0.3263091991082689,0.07729895329202344,-0.6750742403243477,-0.4945401050404857,-0.31448434677631376,-0.2050508273714077,-0.0665325804505217,-0.277480990979691,-0.1447394072684854,-0.3309400386836074,-0.2962154288100768,-0.3096408104739147,-0.3038503562359054,-0.37231528604596925,-0.7124378481362196,-0.26230405930382394,-0.22452447995636649,-0.26593739806526184,-0.3798854175245083,-0.10862509748712407,-0.32419109997960943,-0.39245824456933615,-0.40749197855031477,-0.1942887438280322,-0.3544896378710935,-0.49145426430419614,-0.14537374657508806,-0.046871543818708936,-0.34035873338162664,-0.1796298190160531,1
15.25,5.85,2.775,3.425,16.9,21.325,2.3,8.3,1045.0,374.0,150.0,198.0,1142.0,1378.0,139.0,544.0,20.0,14.0,17.0,19.0,17.0,19.0,15.0,16.0,-0.40975860139639975,-0.04527930267267934,-0.21863341097300665,-0.012018436574224895,-0.6497469346190741,-0.5385758451933265,-0.42127975650252036,-0.3430658206626617,-0.4222692322753145,-0.5925541627421831,-0.4534793867673046,-0.48407317304933994,-0.540009283674515,-0.6773776010793844,-0.43217047774372114,-0.5265631188876263,-1.0412147862475516,-0.9769758078230988,-0.7726215367084425,-0.4875212299768287,-0.7901054234362088,-0.7075774931733053,-0.6686152822326183,-0.5433603702486118,-0.328486751326294,0.06831661607601977,-0.07106608910650386,0.016922487553006064,-0.4185830558263241,-0.2838673126127515,-0.30483744496294535,-0.2624920349050427,1
13.075,4.7,2.275,3.025,14.425,17.75,2.225,7.375,916.0,299.0,117.0,176.0,992.0,1087.0,121.0,470.0,19.0,18.0,11.0,16.0,19.0,16.0,16.0,17.0,-0.6481250513811418,-0.45323160154167796,-0.28220497644052817,-0.11851322808607913,-0.6123228638989688,-0.4463929923072184,-0.524840578480817,-0.18389141825335076,-0.0815945795798743,-0.20979453687178046,-0.2797674298771435,-0.18640552953649112,-0.11128859434953234,-0.1485824610173302,-0.48021262162779355,-0.048121311167957204,-0.7973392330754258,-0.655237097611014,-0.6637129330595171,-0.6076289296895977,-0.3480308418896865,-0.3702164621928978,-0.38725373345148933,-0.4628918261797555,-0.23754653801596448,0.09502863220969347,-0.17864957711891916,-0.3660967361435247,-0.543946949501065,-0.33824583001996683,-0.4420408856399675,-0.36672915067347034,1
14.225,3.925,2.725,3.025,17.175,19.025,2.05,7.575,924.0,248.0,151.0,186.0,1089.0,1076.0,138.0,506.0,17.0,13.0,13.0,16.0,20.0,15.0,13.0,19.0,-0.47713184846249435,-0.4342190009771595,-0.3672710398785843,-0.45709691882685205,-0.6072674932659804,-0.5084789734118691,-0.2657640688180224,-0.22207571535477227,-0.17376902850194606,-0.2358446092696474,-0.13696867689803882,-0.2544365763227414,-0.2996219450364735,-0.5876601674640752,-0.2192616612335336,-0.25833909876401984,-0.566554891042958,-0.4760037997352654,-0.4502999004947709,-0.32547708195276437,-0.2942840446236524,-0.41500017615085044,-0.40334358046291996,-0.2870801997232861,-0.32836143356710923,-0.02486774360535163,-0.09656670262519211,-0.02021027640969397,-0.3854311937788567,-0.2187811978849845,0.19347566670653477,-0.13853844437504198,1
11.875,3.9,2.25,3.1,16.275,20.85,1.775,5.625,860.0,225.0,137.0,174.0,1070.0,1209.0,106.0,303.0,17.0,17.0,12.0,16.0,16.0,16.0,14.0,14.0,-0.3564624688630668,-0.3222218687477863,-0.19111056015006048,-0.1726331361251803,-0.5237951876165933,-0.3815284076213274,-0.4190497834511267,-0.31628887767221864,-0.3975192549843369,-0.25788013669758153,-0.3494841361645188,-0.14583532269183977,-0.273969668265001,-0.46926270012715043,-0.32190104709731066,-0.15962647178593173,-0.579771337884894,-0.5831651179714641,-0.4710078521235362,-0.38963292204389527,-0.4616728012407196,-0.5317946350071797,-0.4601505472208415,-0.2557749101637933,-0.22041944082862344,0.06703686262092169,0.01898510555831103,0.09123082539691278,0.2634492297571735,-0.6450802859179684,0.3008684111159355,-0.281373170632296,1
13.075,4.075,2.475,3.0,17.725,19.225,2.075,7.525,835.0,226.0,159.0,178.0,1310.0,1327.0,113.0,450.0,14.0,16.0,16.0,14.0,22.0,22.0,14.0,13.0,-0.18829098487229945,-0.47589049490061597,-0.09003461754821389,-0.3525058397622393,-0.4540076448008774,-0.5243876721928062,-0.47593462809637294,-0.3675909887749526,-0.5169142752328275,-0.546130173337935,-0.041113342924535966,-0.30213714035897943,-0.2506097760865527,-0.5830954860666799,-0.07999326796423066,-0.5300252662820902,-0.8228418920054454,-0.7700607782709391,-0.18535523920548916,-0.2398193271415035,-0.7143812543459334,-0.6654577508101588,-0.20219538153319289,-0.1880065649847156,-0.3026694020770984,0.0011021947100150601,-0.25908200388040137,-0.2372313475758982,-0.11191847115343304,-0.21867732025643327,-0.0772825863090118,-0.24263072146511877,1
12.8,4.7,2.075,2.775,17.25,21.375,2.05,6.0,797.0,320.0,133.0,191.0,1228.0,1423.0,114.0,358.0,15.0,20.0,14.0,18.0,19.0,18.0,16.0,16.0,-0.2761550496061705,-0.1981563158863189,-0.032444036595073146,0.1445271221801272,-0.7402426656166761,-0.6775280000754058,-0.5679848377962754,-0.2724381829073787,-0.5218763705936278,-0.3473975031524823,-0.08007643121166519,-0.19146194123881996,-0.5301724446447181,-0.38890218864629567,0.01196637246421579,-0.2425116824011483,-0.9432198951839773,-0.903511609234091,-0.4208182037129137,-0.2676047025707768,-0.45321818297030647,-0.5557937040489479,-0.11666002907907765,-0.36851269246675,-0.18153327022370724,-0.0751140796513901,-0.2178220238939947,-0.24523890029363016,0.10474555664207175,0.08618041995671043,0.14849150787282467,-0.35187434488278135,1
11.725,4.4,2.0,2.05,14.2,19.3,1.775,6.825,643.0,265.0,111.0,129.0,978.0,1150.0,110.0,449.0,12.0,16.0,12.0,16.0,23.0,20.0,16.0,17.0,-0.11274078091136179,-0.03900993036144285,-0.3331963515317409,-0.09478048855355131,-0.4878533572378558,-0.4234242454691097,-0.6031316747396039,-0.07932072490602557,-0.30343387951044926,-0.17526728314511744,-0.21599301167125692,-0.35901415561636507,-0.18100714675816246,-0.18787700940646296,-0.2197892562836906,-0.23692906290867077,-0.6551183437293568,-0.2948886133822645,-0.3624233273321172,-0.43924535316092733,-0.27828200398815245,-0.19940756838350102,-0.2992698259617001,-0.40094256787950444,-0.2934487676227523,-0.20444542990572814,-0.22867547199990423,-0.2895662837653084,-0.35270566590920205,0.16380356939497875,-0.2407175870070013,-0.1935991306527011,1
11.175,4.275,1.825,2.15,12.75,15.825,1.7,8.15,694.0,286.0,92.0,108.0,811.0,1018.0,80.0,590.0,20.0,14.0,10.0,16.0,16.0,15.0,8.0,18.0,-0.4673148332612329,-0.190589140611367,-0.18622679786207832,-0.2609033931681726,-0.7361901201983999,-0.5585815916527266,-0.5891868407993555,-0.3607091691244921,-0.08147412866918123,-0.2731850812169028,-0.21770938338979445,-0.36153924139131044,-0.01063363497151962,-0.35734084998364357,-0.11455148712660301,-0.20766121925347086,-0.3288035274459192,-0.11159994300640948,-0.40568749845327795,-0.32600598775906886,-0.28369109795751724,-0.23079515994425143,-0.3887710952895107,-0.3171917249617768,0.05715507416377168,0.016691661249182192,-0.016916908662045104,-0.12304588682629737,-0.6794790237584442,-0.12834270626923366,-0.4311445671294209,-0.4449560433798982,1
10.5,4.425,2.05,2.675,13.075,18.45,1.825,6.375,696.0,277.0,114.0,142.0,726.0,1132.0,84.0,369.0,18.0,17.0,13.0,15.0,13.0,16.0,9.0,13.0,-0.4833081142244637,-0.4682832782564805,-0.45707487372784655,-0.2340586113740634,-0.6599593733421152,-0.5134210745286489,-0.6604488384465519,-0.4738831848590212,-0.330056280333427,-0.29953206724332754,-0.40331960755394347,-0.4139336343569002,-0.29728373609792236,-0.42685955738626413,-0.40141385510639815,-0.36465084653104374,-0.13426073418149664,-0.15477135165190517,-0.39038033443891523,-0.2272303749340951,-0.3074229642566672,-0.27528857612910196,-0.4472571320917094,-0.38276142576445166,0.10732930918405233,-0.06380348576351691,0.04150310628315018,-0.2950387372180233,-0.23796742750739824,-0.1412631091478449,-0.32519277349170506,-0.2803492062033208,1
11.1,3.125,2.125,2.575,15.0,17.525,1.95,5.95,670.0,201.0,106.0,136.0,1053.0,1097.0,116.0,374.0,16.0,13.0,9.0,14.0,21.0,21.0,17.0,14.0,-0.22004698887852192,-0.21580860043568612,-0.3251737738080978,-0.16882477498115056,-0.38754662615199836,-0.28014834713672215,-0.31958916823689726,-0.1874910883435373,0.12736158071902665,-0.14664919386862932,-0.023658473300026638,-0.18134942345110433,-0.35502210590122535,-0.2557236874000303,-0.40878622034910117,-0.15269795360683555,-0.5886878154631733,-0.5433021832767493,-0.12495895745272108,-0.12454558448169206,-0.3285985268719889,-0.3604785076818072,-0.17465610991033434,-0.0808501574085588,-0.4410545039833531,-0.10100716589963138,-0.006538457191039811,0.08763102131733681,-0.3812526811556653,-0.3696967887951909,-0.24390517017141072,-0.09441424828829019,1
13.35,3.85,2.05,2.425,18.425,14.175,1.95,8.425,796.0,258.0,117.0,121.0,1247.0,969.0,92.0,509.0,16.0,20.0,14.0,13.0,22.0,20.0,10.0,19.0,-0.22356500233837895,-0.35053746377472694,-0.1600829882819165,-0.3457092594428223,-0.4978383773125234,-0.23899243584957086,0.022119199605261545,-0.05188386598967414,-0.0031822642012311725,-0.3419277896923672,0.0569028692292347,-0.5567359637698638,-0.14026583706994153,-0.11016825420599621,-0.23977211738035675,-0.25652851119578046,-0.6798007240787254,-0.6122699906526832,-0.3551335924054336,-0.3147157275224248,-0.6014844374871043,-0.228734677291885,-0.11393901244725743,-0.16963217641792655,0.0649918797610592,0.07057272913880308,-0.2641622916461117,0.009930388010129134,-0.3244085660221381,0.04865497042051559,-0.09295752670962222,-0.29610716641081,1
12.75,3.225,1.95,2.55,18.525,17.175,1.475,8.075,793.0,195.0,115.0,143.0,1273.0,1223.0,83.0,486.0,19.0,14.0,14.0,12.0,20.0,18.0,10.0,13.0,-0.30316719609240456,-0.2823357949023759,-0.15733802798661792,-0.24096734600447683,-0.2714164623455768,-0.02227482173209523,-0.18401772062095909,-0.23230335995398707,-0.49672144344937175,-0.4115373653660494,-0.45547121473493457,-0.41206449151240543,-0.31902711283215696,-0.2728473340998862,-0.5269836507278305,-0.13327862295115625,-0.6409423056494996,-0.4154296292616018,-0.29805549481817306,-0.3089710842720349,-0.5436960555552954,-0.5799116110674195,-0.45899238596057884,-0.4092983442131356,-0.2965205327435063,-0.28858064153238105,-0.29909927490379007,-0.003526869724492321,-0.4578076010102739,-0.22371189249491064,-0.11926266440562143,-0.28009765873111386,1
11.675,1.95,2.0,3.0,18.15,18.65,2.025,5.825,722.0,118.0,128.0,195.0,1294.0,1226.0,125.0,343.0,17.0,10.0,15.0,17.0,22.0,18.0,17.0,14.0,-0.49008493701939543,-0.4978503460575019,-0.2981559025485583,-0.2703067727299455,-0.19663001568245905,-0.5711545217921633,-0.1283779683330611,-0.29865226300950093,-0.5374688445032471,-0.32901046793549193,-0.044770681095009875,-0.0872690328365757,-0.6520779164335582,-0.5307193658906428,-0.34023306926517205,-0.05205820843795215,-0.6982921420751697,-0.29261075175462437,-0.4424081992966557,-0.38231663354302653,-0.6796526983986251,-0.5467532280567797,-0.5930394092825357,-0.30933017066679436,-0.32285462515506463,0.2332209090691614,-0.2160773089832507,-0.21783776458522242,-0.34890116264535703,-0.26450160047505983,-0.26736843248325304,-0.16391539861496157,1
