0,1,2,3,4,5,6,7,8,9,10,11,12,13,14,15,16,17,18,19,20,21,22,23,24,25,26,27,28,29,30,31,32,33,34,35,36,37,38,39,40,41,42,43,44,45,46,47,48,49,50,51,52,53,54,55,Gesture
6.1,3.175,2.725,3.4,9.325,25.7,6.275,5.95,334.0,219.0,177.0,218.0,552.0,1727.0,371.0,352.0,12.0,18.0,16.0,20.0,15.0,21.0,14.0,14.0,-0.18094078153210075,-0.25162931171387115,-0.355564909048062,-0.08124592087334244,-0.28195052003867277,-0.13756033151773286,-0.12018331327343643,-0.019174841533698413,-0.42375677618376173,-0.19938161846959795,-0.21474429546563806,-0.16665611253282667,-0.5101248484933766,-0.3290411200308239,-0.23787260469369703,-0.1831201054270075,-0.2754820592189768,-0.3339225650646089,-0.023677740917569166,-0.0825270847807958,-0.43985249083339656,-0.3135103163596187,-0.2993807274375399,-0.2902091969720268,-0.5139887887703697,-0.4219154016221526,-0.5117439463872834,-0.48395928713184033,-0.18091353962751802,-0.36002706828239156,-0.0027320857754775446,-0.4172368329011406,3
9.175,2.425,2.475,3.35,10.675,20.325,7.0,6.95,625.0,153.0,150.0,215.0,694.0,1293.0,391.0,445.0,19.0,17.0,13.0,17.0,20.0,17.0,17.0,18.0,-0.47948186395850084,-0.15936598960193332,-0.1839895911648658,-0.325220628951438,-0.3928530884585953,-0.30421702474354045,-0.14808646214991386,0.0024953964888015322,-0.28224459492354725,-0.3244863910050123,-0.15034034665566404,-0.19052417680824568,-0.39843721874778065,-0.3166916177778094,-0.1792063197849554,0.11720125991730722,-0.3539397996145111,-0.15635187386083862,-0.3251224376481482,0.06374636154874132,-0.42417075231485135,-0.2694299725401328,-0.35578647960498894,-0.3582005283160248,-0.388745942571611,-0.7370957522050051,-0.35235545425338005,-0.6171976767192067,-0.33453001850293135,-0.052005908415852425,0.09113292713342946,-0.12790114367707411,3
7.8,2.7,2.45,2.65,8.825,21.7,5.2,7.175,499.0,165.0,166.0,187.0,589.0,1390.0,349.0,372.0,16.0,14.0,16.0,19.0,20.0,17.0,21.0,13.0,-0.26043359719064035,-0.14789198557201633,0.045429737025040974,-0.24712792730304373,-0.38342223767860645,-0.11124268510027245,-0.0635529393344941,0.1487863398098504,-0.4398205131691362,-0.12477966175445478,0.10723249380173318,-9.637543015009717e-05,-0.4629359975519957,-0.5460540738749826,-0.038521591622990514,-0.2961082456294792,-0.3413320182584389,0.025038084866714314,-0.04710761156270534,0.14907213604460426,-0.41321307235215093,-0.3512276693481902,0.13542390625239623,-0.005496187820826496,-0.5962155741090113,-0.8781905775811351,-0.30274276525854393,-0.46471756733693886,-0.05022792873862982,-0.11871346458522918,-0.08726486749580448,-0.24248542199877712,3
11.075,3.7,3.25,3.5,14.9,28.85,8.0,9.3,764.0,226.0,210.0,187.0,929.0,1774.0,489.0,489.0,20.0,17.0,17.0,14.0,20.0,18.0,18.0,18.0,-0.5430497401723592,-0.38265469383227246,-0.31894802826158203,-0.4180441229021113,-0.37931518267680286,-0.23118657333366752,0.0048129233715238666,-0.020851006116132043,-0.37714049483157763,-0.1489022264511559,0.011369131237608554,0.028317539856785742,-0.25559379673006444,-0.343013131570692,-0.07721575550954118,-0.22843369759460175,-0.4151141168950909,-0.27145569300085076,0.10261035372600348,-0.11259327879132457,-0.4519195405106453,-0.4679008666969014,-0.17292992810372185,-0.24836409521165906,-0.5192294616634094,-0.46592547175352805,-0.34372852035344453,-0.3679181445931593,-0.23814897421653938,-0.2781672192262927,-0.33052384278639846,-0.35292551281940154,3
11.825,4.1,3.125,4.1,13.0,33.675,9.6,8.075,780.0,260.0,201.0,235.0,762.0,2042.0,618.0,451.0,21.0,18.0,13.0,17.0,17.0,18.0,20.0,15.0,-0.4449270640947343,-0.19068320994561616,-0.333259111337713,-0.2357602222490635,-0.2518154377737496,-0.03510134805389358,-0.29749294369635515,-0.2260478320181482,-0.4756056261384253,-0.24868567928274984,-0.05122651688954336,-0.10084204820100201,-0.2318613163752906,-0.1561980802188403,-0.06875232522419461,-0.12224163234565907,-0.37082627307007576,-0.4040204058667426,0.18315985923227743,-0.056686850966525745,-0.2608392792115672,-0.2040022195782104,0.03426475109303544,-0.14286334428361439,-0.6004264457912071,-0.5757946277354166,-0.3723058402664714,-0.3613310971825014,-0.2968045512451497,-0.26857017146055956,-0.2275118366636409,-0.055762936979227545,3
9.125,3.9,2.875,3.875,9.25,29.2,7.75,6.25,636.0,261.0,157.0,259.0,628.0,1874.0,461.0,366.0,19.0,18.0,11.0,17.0,21.0,20.0,16.0,10.0,-0.4936752447957342,-0.08115462701750115,-0.5701318880502423,-0.38427904281668857,-0.2889832690361416,0.12814119049243938,-0.4324051725579703,-0.20686931704339473,-0.481118276692702,-0.5319578312722281,-0.395121872890069,-0.49487280762672137,-0.3692787291095626,-0.07585348430936242,0.08117205449225588,-0.18031951170720062,-0.42331646739659584,-0.09725654592139321,-0.29437399251480384,-0.13082921909369113,-0.4915068818346054,-0.5490769632631641,-0.22124646595653585,-0.3268960211575133,-0.23095740929005426,-0.47141059397924767,-0.1972566057111262,-0.4354170839080528,-0.19467165281825144,-0.12490082917046168,-0.21376507855113228,0.029996229093735314,3
6.775,3.1,2.1,3.55,10.75,32.225,8.775,8.2,467.0,197.0,117.0,209.0,773.0,2235.0,503.0,543.0,19.0,17.0,13.0,19.0,21.0,23.0,15.0,19.0,-0.4026761052385303,-0.13265095057091972,-0.0022138272839438812,-0.0036935689395250775,-0.276377114336875,-0.10159014937243671,-0.09642534198385933,-0.20186634898747297,-0.27688904672439335,-0.3573654332136051,-0.09190770191725138,0.12753896269759826,-0.2900028162513013,-0.34011500449712784,-0.22369707650663437,-0.19859892680298485,-0.6936855509305612,-0.21846848317049827,-0.0006321133584773353,0.06883441238416818,-0.47832096854088646,-0.21150815108720106,-0.16637524733273312,-0.19936029040601236,-0.39264482255400496,-0.29591866638205644,-0.28443302808887294,-0.2030225320819588,-0.5555525340652347,-0.3822124011019384,-0.4531355718745566,-0.29577531440898036,3
8.55,2.925,1.925,2.775,10.85,27.6,6.775,8.225,592.0,167.0,108.0,152.0,689.0,1764.0,421.0,499.0,18.0,13.0,11.0,9.0,15.0,17.0,16.0,16.0,-0.28294491686744627,-0.15609109886968908,-0.010755752026457536,-0.43459387363024876,-0.03426605556109458,-0.2867788755765686,-0.0714821709405256,-0.23243072889293198,-0.2867124384505287,-0.3230373308266028,-0.32511192575530007,-0.17515039300609558,-0.2696544046847854,-0.34204689611332867,-0.4440565871753313,-0.11995458625303718,-0.6274258953769583,-0.6052987055190145,-0.5698645735454224,-0.3635927060796055,-0.3371265005365088,-0.43523389273509683,-0.30895439187028934,-0.09360222965731249,-0.4825945332824976,-0.19681934158877262,-0.2266877829743921,-0.20442786787405295,-0.3133807193965139,-0.45801191370693145,-0.049745350938934646,-0.31831573139464414,3
7.025,3.8,3.825,4.45,10.475,31.175,9.3,7.225,455.0,214.0,211.0,251.0,690.0,1891.0,570.0,501.0,17.0,12.0,14.0,20.0,16.0,18.0,15.0,21.0,-0.2175839484358655,0.00019144851931040608,-0.09111415733538292,-0.12205153518177858,-0.10701636136083154,-0.6418247303268269,-0.07697547004766855,-0.369854721703828,-0.34137985019510014,-0.5579254481165734,-0.4022083123834085,-0.3417090338888601,-0.16509919845596235,-0.6230793383561247,-0.19612104249536072,-0.22882979234213557,-0.46910898318069183,-0.6798826331643543,-0.3833035100666201,-0.2782304952832637,-0.49267513430352294,-0.4790923709285271,-0.5756076542908426,-0.24552106830754558,-0.5345246894877361,-0.7026198949362956,-0.5024828727097563,-0.5045284756671992,-0.4691352878801915,-0.3751128853984092,0.07726808507618159,-0.1648959014311294,3
7.275,3.825,3.8,4.7,11.05,32.575,8.45,8.725,423.0,223.0,215.0,266.0,719.0,2022.0,475.0,592.0,15.0,16.0,14.0,12.0,18.0,16.0,14.0,18.0,0.02010712792295048,-0.2636325723849375,-0.06145634850635925,-0.25107934719565655,-0.14302920990982074,-0.5423105585864613,-0.14175242711843733,-0.44316316771575753,-0.455566059208474,-0.5275068635875557,-0.5561541058478494,-0.5355967952903338,-0.460825092495916,-0.5614400098589006,-0.529204287215405,-0.5038540425034338,-0.4912029630317332,-0.6478454490366656,-0.2617060226234298,-0.24181826082594962,-0.3828358526063721,-0.24246408378679213,-0.27895164837222947,-0.10395863612816945,-0.4195649704641471,-0.4803817148361509,-0.5312636090112,-0.4406378955550523,-0.32205268338377685,-0.20267996539011585,0.030254081712662747,-0.07430287939013924,3
9.75,5.35,3.625,5.775,12.425,49.25,11.125,7.2,655.0,330.0,246.0,382.0,851.0,3230.0,702.0,479.0,19.0,19.0,23.0,23.0,19.0,21.0,19.0,21.0,-0.4180437442717113,0.0658496579210713,-0.01133023015864036,-0.1082376146028486,-0.43785516559942134,-0.02905565320880275,-0.11201928454030663,-0.05226638581977086,-0.6797678024009189,-0.42663215724941983,-0.4129645933693331,-0.3355077585042648,-0.7649991717946729,-0.5688592874304348,-0.4301146109646434,-0.40641571630187884,-0.6358355246451778,-0.2125577161009266,0.030657078040929087,0.016207744617027578,-0.5730503588175493,-0.12212253665775,-0.1041095917936217,-0.06164479032790686,-0.5257563523542065,-0.13177831426899728,-0.23291174984520144,-0.26557838872955075,-0.6056607775792701,-0.3302344371521714,-0.21568757868575034,-0.22098017405904183,3
8.1,3.95,2.525,4.025,11.7,36.35,9.2,7.65,521.0,247.0,175.0,232.0,745.0,2314.0,550.0,440.0,14.0,16.0,16.0,10.0,17.0,14.0,16.0,16.0,-0.39333403635872205,-0.08447970839504984,0.1593315333359274,-0.1494094196319824,-0.4461439585750997,0.049861796039988665,-0.3961533639065555,-0.30557022988289684,-0.3926437948559007,0.2788833825879297,-0.3387282233577411,-0.2990658934714899,-0.3252070916821207,-0.004930121436984952,-0.05507820418920081,-0.05218608122193958,-0.2870972911789812,-0.13858136520093275,0.08121109522918535,-0.045241386688499134,-0.3941159418060759,0.12879146702404415,0.061633607634649715,-0.3711576772249091,-0.5295684295489305,0.032390812341976875,0.03436233243829626,-0.11485239071318784,-0.283292350195674,-0.31294542591541624,-0.09676379677144312,-0.14579566098498267,3
7.05,3.875,2.85,3.5,16.575,35.75,9.275,8.325,460.0,235.0,173.0,209.0,1050.0,2282.0,630.0,581.0,14.0,15.0,16.0,13.0,18.0,19.0,21.0,18.0,-0.3692959888796971,-0.2974702240207234,-0.18218793838889197,-0.26302167500453993,-0.4646962037513708,-0.40440035631107923,-0.20655153338865592,-0.4689264039023104,-0.41376112150714506,-0.3642521257855006,-0.31963993687234216,-0.34628392724608953,-0.22899485520558596,-0.17266242083275155,-0.10362903515352767,-0.11213311246566762,-0.5359875420450855,-0.39327314046917744,-0.28555285524707114,-0.15362209072534996,-0.6208548039699869,-0.19181304548431943,-0.10153135098669834,-0.09898497682373192,-0.5013436356757265,-0.1054226220407503,0.10370325513965752,-0.16813948079635882,-0.8725215588684427,-0.6702265003989679,-0.32280162917399446,-0.19999729453749016,3
8.1,2.975,3.0,3.35,13.925,37.625,9.2,6.275,549.0,164.0,171.0,200.0,882.0,2394.0,588.0,399.0,20.0,16.0,13.0,12.0,20.0,16.0,20.0,19.0,-0.6484634638553093,-0.0868399064421666,0.054269737298725265,-0.06475519412924505,-0.14410342284469893,-0.04081953730339299,-0.24271110169935095,-0.15843741493982288,-0.09494393514467225,0.017367276462582362,-0.16791337851412114,-0.20493773310112973,-0.16446293822829153,0.10539373541097678,-0.09499838109327888,-0.32796919247411943,-0.5377563280925437,-0.3645602614936045,-0.021335030027457007,-0.13766055614236328,-0.3859271556282512,-0.15383847332336656,-0.2800812444813544,-0.3027218396989133,-0.3624597617842219,-0.1552886571455308,-0.31941099535159007,-0.19756356738049646,-0.4009827619362655,-0.04124846018279127,-0.16979802261743757,-0.20283272079814155,3
8.675,2.55,2.625,3.625,12.75,37.175,7.8,8.025,547.0,165.0,142.0,210.0,810.0,2233.0,442.0,481.0,18.0,16.0,14.0,13.0,15.0,15.0,11.0,19.0,-0.4744332201817919,-0.3052040294540637,0.04417455172227731,-0.03675534708885131,-0.3511079079724278,-0.05924853333919456,-0.09425555960137323,-0.08637737989216875,-0.2708402883620151,-0.16154192079414756,-0.29014343338307397,-0.3045980671769318,-0.3024000987829473,-0.1930233547375203,-0.14765698631566476,-0.2721640978581985,-0.3542284500594419,-0.2724366823276398,-0.23200629364641437,-0.45571308953977613,-0.2288036927769466,-0.2173898471775044,-0.16937417205748792,-0.19729823824455317,-0.1648530436313504,-0.22839000849228505,-0.24534148956565152,-0.10877784677594134,-0.2455129229545036,-0.1464799011279479,-0.11617067458518025,-0.2947948910867592,3
10.5,2.625,1.775,2.75,10.15,31.35,6.55,7.3,772.0,192.0,106.0,167.0,701.0,2171.0,432.0,440.0,22.0,18.0,12.0,17.0,17.0,20.0,16.0,16.0,-0.9658399591552986,-0.48191777367320393,-0.1963815314217293,-0.1977643255672857,-0.46890423841375184,0.065432125110944,-0.3235867702094345,-0.48972543297045307,-0.39517307843044125,-0.23157203126405618,-0.33429505086388556,-0.508214701733718,-0.1467899806190086,-0.1326552424947224,-0.1379897925537684,-0.2522694599906338,-0.4733143986812683,-0.005529299421960394,-0.02586631398191895,-0.16203333807127326,-0.5861569258246349,-0.3545433782269971,-0.19324535370958673,-0.29111013104137556,-0.46274050751818874,-0.3766133986272015,-0.1773521583814683,-0.28522023467402335,-0.16780040156284468,-0.19891963150558523,0.15409012612943995,-0.09220599629011365,3
7.9,2.325,1.65,2.6,9.925,29.925,6.05,7.025,494.0,139.0,87.0,155.0,732.0,1916.0,365.0,493.0,19.0,12.0,14.0,15.0,20.0,17.0,15.0,23.0,-0.36196562264894694,-0.4204547604880479,-0.09350305184022847,-0.22129565259708697,0.023298864235339976,-0.41809937768841693,0.04824783201579179,-0.40429480921720345,0.011713408346633399,-0.47386697989127086,-0.06536127727883388,-0.2008883919165871,-0.23057594965796743,-0.40538607668667037,-0.032917687714528555,-0.0664545212713798,-1.2177190467978567,-0.9685014952095493,-0.20021193923288513,0.006068849071990217,-0.54920382846551,-0.487370279726599,-0.24416347742378913,-0.10980942403401835,-0.2794042154243315,-0.1554206771162652,-0.01906967914729398,0.2728865286250973,-0.4895639553446606,-0.22202756918428954,-0.1794780037701776,-0.011068855224226909,3
9.775,2.95,2.775,3.375,12.1,34.475,8.075,8.425,679.0,174.0,155.0,208.0,757.0,2180.0,552.0,526.0,18.0,15.0,12.0,16.0,15.0,17.0,19.0,17.0,-0.38015658986667117,-0.026082698180891088,-0.040687103658130656,-0.29384568384820303,-0.25769322025787045,-0.6576487401014967,-0.18360571881319104,-0.443889672727481,-0.1632285861374578,-0.14452490667710147,0.09043905810511037,-0.2660044056004713,-0.10790982443386946,0.029619206724611852,0.10014850438212686,-0.4885140687867843,-0.597357717552951,-0.624129084035493,-0.3562647345630262,-0.4397005723424895,-0.28329719862516156,-0.19819760743336326,0.14169086790978308,0.0917154505875907,-0.3962447745283849,-0.3732809123709716,-0.13099768962820416,-0.1571913864552379,-0.42294433469405956,-0.30208294149694226,-0.11021025091709204,0.10811730409922975,3
9.975,3.275,2.85,3.15,10.925,31.4,6.65,7.75,667.0,211.0,162.0,175.0,697.0,1840.0,389.0,509.0,14.0,16.0,15.0,14.0,20.0,16.0,15.0,17.0,-0.7626480689487743,-0.5514830224996048,-0.477548034177508,-0.1941588187834152,-0.4982318511655671,-0.5032925653554553,-0.4180847189609656,-0.40702892861808954,-0.05590016289770248,-0.07897637034916365,-0.09056180603202914,-0.1814499723056765,-0.14800437619467455,-0.05140670655360055,0.005656319486844874,-0.022730235025592568,-0.34908717812189677,-0.02928004946673972,0.057320224310936065,-0.09285734833322425,-0.11786514285692558,-0.12262280769879888,0.12944148966650829,-0.21655601391460813,-0.12073336544107956,0.0005866243038483343,-0.12828732084028302,-0.3954382532693489,-0.6093800363002913,-0.35614226383505276,-0.5016256935173681,-0.44780851130759675,3
5.425,2.925,2.875,3.75,11.675,26.675,7.325,9.125,319.0,164.0,155.0,226.0,721.0,1498.0,400.0,577.0,13.0,14.0,14.0,17.0,23.0,13.0,14.0,14.0,-0.4238176012732967,-0.34572381101393324,-0.37719336820386834,-0.35036464048709165,-0.175802288482896,-0.14165201367397556,-0.5169537357608105,-0.2700985685266985,-0.24143427498024483,-0.16666315802357468,-0.46824835535288567,-0.26754476730918164,-0.2055004122966676,-0.2050305702075923,-0.1392242666809095,-0.370057388427629,-0.24829585847561644,-0.006960897352207597,0.0643302977896685,-0.2555851058969678,-0.030567811451669594,-0.2550021589867753,0.03488919920169246,-0.26587397598490076,-0.20588644751032206,-0.44786354716711785,-0.2869578138767047,-0.5388633374877343,-0.20134753938531486,-0.40478207683207423,-0.16818028721683362,-0.5237010109580745,3
8.775,2.375,2.625,3.375,14.1,23.025,5.725,6.2,582.0,124.0,148.0,209.0,894.0,1328.0,309.0,393.0,18.0,11.0,13.0,19.0,17.0,13.0,13.0,14.0,-0.27897169842169217,0.029166956640306545,-0.12442828881673688,-0.24837531600063606,0.11491734621655282,-0.20095034710797913,-0.2927505696985982,-0.023713350527999666,-0.13964559438624988,-0.1587962195973805,-0.1518884353979742,-0.2934235410424346,-0.2599831717882327,-0.19350296889626473,-0.2481146159660756,-0.24193389811271895,-0.5658072074665472,-0.3901700211379396,-0.1524208161008925,-0.21268828216477162,-0.06242358012289457,-0.2158125695269907,-0.18577632237209346,-0.1867815496969604,-0.12468927531119618,-0.5082122073763695,-0.2679725935227281,-0.23027579043976054,-0.1723047126499374,-0.18749542472879535,-0.05472028178136456,-0.30735144668011194,3
8.425,2.55,2.6,2.75,14.85,25.375,5.35,6.45,526.0,141.0,134.0,174.0,1028.0,1535.0,335.0,429.0,15.0,11.0,15.0,18.0,24.0,20.0,19.0,17.0,-0.4000507518150077,-0.27355215323418014,-0.2907260976240902,-0.10164518450139293,-0.32954597460871515,-0.17579890152441865,-0.0621452730007592,-0.0948503497283564,-0.17935438620762367,-0.09769103168298288,-0.1431603805704663,-0.20539282490247568,-0.48781796332224614,-0.46026438364521594,-0.3514622325896729,-0.05847629787829933,-0.8163935150390993,-0.48167198090597435,-0.38325322958740443,0.012756136874043653,-0.28393904558027067,-0.20601590779703588,-0.13154729811145127,0.0018590764463658736,-0.15592783301304683,-0.44327273382472626,0.03162369396591988,-0.35325337475515856,-0.36077065376836426,-0.4196188687547562,-0.12738082666937708,-0.36705410954504186,3
7.325,2.325,2.175,3.0,10.175,25.675,7.325,8.275,493.0,130.0,132.0,203.0,679.0,1672.0,429.0,479.0,21.0,18.0,16.0,20.0,20.0,20.0,15.0,16.0,-0.41452280603498115,-0.34370489869286164,-0.21749963805050926,-0.4132179014111286,-0.31254158320325415,-0.2415216868966199,-0.23463602184302032,-0.24258061241968848,-0.04172888477034207,0.25460996803971353,-0.2821232080546931,-0.025052368978213113,-0.4218821523840126,-0.03562587869662345,-0.3089982171378946,-0.31789452599372525,-0.48250856157263544,0.093217584358115,-0.12484395277674659,-0.036244970813007614,-0.5458761603968322,-0.3673357651927698,-0.332385887487578,-0.05061261222086325,-0.19214001285145854,-0.29481941308093523,-0.16470953345151748,-0.36426278545997504,-0.24316137234401014,-0.29982535326619564,-0.1208417658643121,-0.37970232482009597,3
7.725,2.175,2.475,2.85,10.75,28.95,7.175,8.225,497.0,135.0,144.0,181.0,702.0,1554.0,434.0,537.0,11.0,16.0,16.0,14.0,17.0,15.0,15.0,21.0,-0.2974562359258624,-0.15853111250156615,-0.2793763085446657,-0.4565351729686088,-0.41347208067941266,-0.33285330318998624,-0.0882681882919647,-0.20532164914227388,-0.3261481134970285,-0.4455081233095948,-0.25129775794059495,-0.3263663684716417,-0.5314694914048343,-0.5806414254378113,-0.40202480767812554,-0.143089251090039,-0.5384772026146984,-0.34439894048195613,-0.5980665965421693,-0.3693100465749072,-0.12006589066207579,-0.2480376373271725,-0.323067092924457,-0.12367624230377466,-0.14851397397084187,-0.03477576876067003,-0.10390278123631798,-0.16167328578889492,-0.4829174073348518,-0.27597728977095765,0.0024413432927400222,-0.19195603445338663,3
6.35,2.65,2.45,2.675,12.65,22.775,6.275,5.75,429.0,167.0,151.0,160.0,840.0,1509.0,351.0,388.0,19.0,19.0,16.0,12.0,19.0,19.0,13.0,15.0,-0.4651154185224149,-0.29383288045770817,-0.12739584033987358,-0.26361962832581104,-0.5319953740353138,-0.36314504004338366,-0.029250800365922328,-0.12333963409789367,-0.4439981006849356,-0.3046580202185108,-0.35356453752060946,-0.44702752732676604,-0.4289064292433713,-0.33880188321022586,-0.34493395726233034,-0.3691695530995127,-0.6574710180546592,-0.45684343700729585,-0.3002996100534085,-0.36220837318361876,-0.2654305091430554,-0.09475261253196332,-0.16397506096883582,-0.14574995398983195,-0.25092517744927967,-0.32844580678089685,-0.18827957818577887,-0.1464279228999461,-0.5879382119361323,-0.5814006743736264,-0.32318083553395044,-0.35644247055329953,3
5.85,2.3,1.975,3.25,9.975,25.175,6.575,6.775,373.0,131.0,120.0,202.0,711.0,1648.0,392.0,421.0,17.0,17.0,15.0,15.0,24.0,16.0,15.0,17.0,-0.2796517065820142,-0.24871314718100415,0.006109489932904929,-0.13929174939150302,-0.17137824201954957,-0.20717296126461435,-0.18262666110313358,0.13382889271487355,-0.10604784207165534,0.17452803756922988,-0.11014993370770802,-0.1668177140295533,-0.23172214817705916,-0.010761556058737678,-0.23222781168928544,-0.17623820986015332,-0.5970557288834419,-0.20778042611000697,-0.33121082729390017,-0.03829820742027334,-0.38458260975792247,-0.21094180299064505,-0.20958079193837637,-0.37127936615145646,-0.42283594614412895,-0.03469850460427427,-0.2094026059842661,-0.22218805944285333,-0.2280333777980841,0.10236182365902328,0.14999437319494288,-0.052175623827663484,3
7.525,2.35,2.525,2.875,8.225,20.6,5.5,7.025,469.0,150.0,160.0,177.0,498.0,1267.0,349.0,447.0,19.0,14.0,17.0,15.0,13.0,11.0,18.0,20.0,-0.4144332734872445,-0.22390313088829913,-0.09862592222278894,-0.0321930541974013,-0.45900802559248277,-0.21835540954077468,0.02674790391102478,0.07295122369406547,-0.2818901773537558,-0.03825152267921037,-0.055661820695956446,-0.06045423032356344,-0.22720248021512923,0.13092343718279323,0.05825842489645048,0.19175487039316896,-0.20745823515535375,-0.29821511309766585,-0.3353162728523879,-0.02187513624959816,-0.3056951966966941,-0.26949997074866466,-0.1747953374693541,-0.19419537201217796,-0.39661968419727983,-0.08425718258366201,-0.03057161163163929,-0.10354857974509975,-0.18947323546546835,0.2691338640527561,0.25856047587240305,-0.13862737746738527,3
6.575,2.275,2.175,2.15,10.05,22.5,5.975,5.95,368.0,123.0,118.0,122.0,656.0,1502.0,398.0,399.0,17.0,12.0,16.0,8.0,20.0,20.0,23.0,18.0,-0.14651771235559613,-0.17780542299143043,-0.006777630423257354,0.0073336678853760644,0.07216844688324993,-0.7399840248290477,-0.07733382473124782,-0.2823237673394622,-0.049660754796167744,-0.5563843544112346,-0.16493965778698338,-0.17394518099786588,-0.30224774330044857,-0.5529252755838896,-0.1520732442923052,-0.2326822733147606,-0.5218270254664968,-0.49190128333322397,-0.4769327996580339,-0.49423996041912654,-0.5039987015753294,-0.13689269345814506,-0.16980093455671463,-0.18677309624616967,-0.6440862156243258,-0.5266588563287974,-0.4143054156076946,-0.12245154691484118,-0.40035089526064294,-0.2818798297926149,-0.3461444722549322,-0.10147548277370268,3
7.475,2.125,2.475,2.875,12.475,27.5,7.225,7.5,498.0,123.0,160.0,153.0,917.0,1812.0,482.0,531.0,18.0,13.0,18.0,16.0,21.0,16.0,15.0,24.0,-0.34508265658296494,-0.05103202325324054,0.05634929302941787,0.03138584976170374,-0.18889751076451414,-0.5294599152620727,-0.2068832691106266,-0.08770657201775452,-0.5568135217414469,-0.631645753017282,-0.3336436100487139,-0.19056117335296713,-0.3248671005299835,-0.4258706880399466,-0.39234066174960885,-0.3668431611675749,-0.674231563739715,-0.37387663633239065,-0.11267125100659658,-0.20223690432053432,-0.5009617535808324,-0.393717352341743,-0.23175728186475925,-0.29005255823370973,-0.5634951611389722,-0.46216993231980685,-0.3688315557211566,-0.19808836163317112,-0.4342018088768264,0.04460506717105615,-0.11224627590389612,-0.20059134899465908,3
6.375,2.475,2.7,2.925,9.9,29.15,7.2,7.6,411.0,156.0,169.0,174.0,614.0,1897.0,491.0,409.0,15.0,19.0,16.0,12.0,15.0,20.0,18.0,14.0,-0.3444955095242705,-0.23181568454506885,-0.1481182374468504,-0.1554860674101524,-0.5139165058795365,-0.30230322743957055,-0.1699711429307678,0.0470292430646432,-0.3445725710917304,-0.30018388826131875,-0.4709381905563702,-0.15328835097564675,-0.4431629586019424,-0.36569975982552516,-0.4282643285765882,-0.15338608110380833,-0.388607782216694,-0.2878268955076721,-0.339963610863053,-0.28817264052528896,-0.42256870788952244,-0.23733799398042887,0.09809312418501726,-0.198304488049273,-0.5395243323891525,-0.2632014953136408,-0.286844877608646,-0.3323692669290338,-0.05955492334138331,-0.299292354141,-0.15612164677325605,-0.3711409224639247,3
5.6,2.45,2.175,2.625,10.725,28.85,7.625,6.45,303.0,152.0,139.0,148.0,748.0,1929.0,513.0,428.0,13.0,16.0,13.0,12.0,20.0,20.0,19.0,16.0,0.12322832001530148,-0.17836468199064268,-0.008693802373508398,0.011370087853110616,-0.47158939789441895,-0.3308775294478793,0.02230123071121416,-0.0300794365310657,-0.20020079315083533,-0.12521407292731865,-0.14749287452193688,-0.15313631277267178,-0.21156638091848606,-0.1759457247512561,-0.03656238995723956,-0.054651558297163866,-0.715119653754953,-0.5866215838640069,-0.2748905573621838,-0.25303252608001203,-0.7420667232997483,-0.5764222953075661,-0.3727219460437003,-0.2725879131189283,-0.6473762781022169,-0.39735019559374424,-0.19107996491265522,-0.1464374390945442,-0.27515883152073284,-0.33851889900835325,-0.14058103684175308,-0.28333213346070263,3
8.2,2.4,2.275,3.4,9.625,26.025,6.6,5.2,455.0,142.0,123.0,207.0,640.0,1760.0,398.0,307.0,14.0,11.0,10.0,13.0,17.0,21.0,14.0,14.0,0.0007664465618376777,-0.27723476187103924,-0.13643489221320365,-0.2311110446468088,-0.22073018413572534,-0.36372141746441494,0.0722630592745405,-0.39128263513616096,0.06014162353917656,-0.5067988877939771,0.11126506964082705,-0.4608643014992135,-0.3371130987403333,-0.1725921548072574,-0.23393679757827493,-0.19364641220940576,-0.509706515652333,-0.06026297095523254,-0.12231818463749221,-0.0681731641402376,-0.6084942866527805,-0.5032398453341801,-0.058808837775671245,-0.15376020514822558,-0.40920267583821246,-0.26423468503487413,-0.2793235363495955,-0.3297009338400034,-0.11952174726454033,0.026666317916884293,-0.27445377452918807,-0.2524917436258581,3
6.05,2.5,2.15,2.125,12.35,23.375,5.3,5.55,359.0,171.0,120.0,127.0,868.0,1550.0,309.0,382.0,16.0,19.0,13.0,13.0,22.0,17.0,15.0,18.0,-0.27373112468608146,-0.17446115060815315,-0.035694771406047904,-0.1255069957967957,-0.5340040298230172,-0.3117103372361433,-0.11292231725232849,-0.23022179176364205,-0.1362904749421013,-0.12580845925690656,-0.30601853621387665,-0.1448341332514704,-0.19803209970303695,-0.2224131691573158,-0.09133513175323067,-0.3826109118462663,-0.5911968944127967,-0.1649156353294584,-0.4663114083384014,-0.32646088333149537,-0.26361230978713934,0.0392563295468477,-0.1369671803938504,-0.047636145160668386,-0.3377975429628381,-0.39713855176914975,-0.21748802077251378,-0.20786594333446184,-0.418616299156455,-0.31553073030304707,-0.14679229413137693,-0.2778350082709389,3
7.525,3.175,2.45,2.475,10.4,23.775,5.225,7.5,469.0,207.0,128.0,142.0,630.0,1447.0,356.0,493.0,19.0,20.0,16.0,12.0,17.0,19.0,21.0,16.0,-0.2994024881292761,-0.17934143214929082,-0.20697737585574888,-0.08018072760277295,-0.5720209485101158,-0.3053101629653468,-0.14699867263290187,-0.058237229277110995,-0.21945135175450048,-0.24619843118580909,-0.19769314179785974,-0.15328613256359513,-0.14357015334662235,-0.1513012181336188,-0.26295473275154924,-0.00519096258267236,-0.34535932249578,-0.2277577398565514,-0.08016080219702527,-0.12779288394800983,-0.25323529330528294,-0.06311158986845268,0.12024017023006464,-0.0022311535501259327,-0.7275225887213945,-0.36853579271439163,-0.4283838008735163,-0.32775088277202524,-0.41143647421050916,-0.08893747008123103,-0.2441277970041409,-0.25824011900056093,3
7.15,2.25,2.25,2.725,11.475,26.75,6.6,7.3,479.0,140.0,129.0,171.0,727.0,1656.0,434.0,487.0,16.0,14.0,12.0,16.0,21.0,18.0,16.0,18.0,-0.46898131954290906,-0.2465915187218763,-0.024045607651035104,-0.06391569960485957,-0.4887130464412849,-0.1908435288016917,-0.31672890998168496,-0.2733581372765245,-0.4857846268159902,-0.21116109893237126,-0.29088185491793106,-0.4226032664542941,-0.38372373983745006,-0.07929322711108207,-0.12130985909965178,-0.15871525289689234,-0.4787771175061523,-0.08276086819680087,0.05616096556122143,0.07259685138445472,-0.3029693349356792,-0.19688122078488296,0.019455477262273074,0.145783313505829,-0.423247184211281,-0.005200535731122922,-0.11657156153235616,-0.08976638008772071,-0.6447297742763669,-0.3468506797689682,-0.13442450789662785,-0.06831853714091264,3
6.625,2.3,2.0,2.8,15.65,27.7,6.375,7.1,412.0,140.0,108.0,190.0,1092.0,1817.0,394.0,464.0,14.0,16.0,13.0,17.0,19.0,19.0,13.0,20.0,-0.15605529165142712,0.028258452510929056,0.039263774902933944,-0.028057381123841096,-0.11518127003206553,-0.09666917278214493,0.32287384161352384,0.1576571435670279,-0.014176672932852913,-0.23056976543451,0.12303516413685227,-0.1851300203891038,-0.29963255568007247,0.25072855285525114,0.03112488911601975,-0.4468625917018688,-0.5177721445556601,-0.24322386954624428,-0.143242450120772,-0.3105304409096237,-0.399542733733072,-0.24875494492695113,-0.05911121500200159,-0.30820446335211854,-0.5492122493879246,-0.4528400389838732,-0.29350628520449545,-0.13596137400799624,-0.5394141552751202,-0.3631566260555773,-0.16375884367977914,-0.28328536871522375,3
5.775,2.325,2.2,2.675,12.5,27.8,5.475,8.075,361.0,120.0,113.0,151.0,833.0,1762.0,299.0,512.0,18.0,11.0,14.0,10.0,21.0,16.0,16.0,18.0,-0.08557323415407737,0.13805676701770803,0.20853836999526332,0.0294478614617079,0.1761595037791317,-0.3112302320269248,0.3533443199337873,-0.044176431330012395,0.11651376100247052,-0.22990418011511807,0.1762693043747436,0.06407996512789671,0.061449552703576334,-0.17382497718455997,-0.029386846579806225,-0.17803990617767113,-0.3703961719271696,-0.34755195045201254,-0.14774317013210608,-0.4737989495238713,-0.4291824131639733,-0.43811216063879593,-0.3112399459938764,-0.6143529934446583,-0.10202651199601595,-0.33796050953239,-0.05102756981501261,-0.3370336412915873,-0.27456240172810054,-0.08809028487634388,0.13850606011600355,-0.24683541276506832,3
7.875,3.95,3.175,3.05,10.775,30.775,8.15,6.95,517.0,228.0,168.0,170.0,719.0,2041.0,515.0,351.0,22.0,15.0,15.0,13.0,21.0,20.0,15.0,13.0,-0.22393839459489379,-0.08505094025835873,-0.10795379740275265,0.09043549242054287,-0.19330223074745567,-0.09122291975982996,-0.30783160486758976,0.08796627056222016,-0.12175495116070427,-0.06836512150193508,-0.3221461833316845,-0.18858517533254018,-0.011210556898304889,-0.14134213903218,-0.16969876105602041,-0.22469675066834213,-0.5374433230702531,-0.1575729830029515,-0.09419137352737737,-0.2513424696954251,-0.40991519219299205,-0.11601601854618149,-0.22830809832370913,-0.4743812122684599,-0.35662239355331593,-0.38744306942394735,-0.350977247582318,-0.5193954013283397,0.0007807265069724655,-0.3585200261867287,-0.11929874446788907,-0.3572538902204491,3
7.8,3.175,2.35,3.075,12.0,27.525,6.975,7.65,485.0,176.0,143.0,170.0,810.0,1766.0,402.0,454.0,18.0,15.0,11.0,16.0,18.0,19.0,12.0,15.0,-0.22315160971643105,-0.19577090631971306,-0.22712349994728467,-0.01654599204818153,-0.28512359022353084,-0.2907787001675787,-0.08845065727616615,-0.1008743213327522,-0.14870352200426742,-0.14693260409820239,0.2848775645074445,-0.0584285689275187,0.026814081654772802,-0.10767372749623834,0.24493477472201006,-0.24406892144986117,-0.5298682482596674,-0.2187341483211888,-0.14124059068926692,-0.40059636360994993,-0.39305363827115036,-0.23548230279935306,-0.18731484908907534,-0.04415573235722963,-0.025529789580609617,-0.24399595200470908,0.019750803710357725,-0.25042312247467274,-0.07636782121030473,-0.5005648427478426,-0.10930224829871953,-0.39911697590043765,3
7.025,2.75,2.4,3.325,10.05,23.6,6.225,6.275,466.0,139.0,148.0,201.0,666.0,1492.0,388.0,377.0,21.0,15.0,13.0,18.0,21.0,16.0,14.0,13.0,-0.5548417633728476,-0.23712898716552228,-0.33560734558980493,-0.020704700759622215,-0.13419108650154332,0.1017911398774972,-0.19342357265296622,-0.08841437899725765,-0.2515931985063469,-0.11061252161792513,-0.05957014100689511,-0.32064842616055284,-0.30091788911538003,-0.14499550552416807,-0.18813103893212613,-0.1542146935610736,-0.5507113840585645,-0.3785787839960119,0.06096177064599851,-0.06404034457958083,-0.34122286101725285,-0.16460952970186282,-0.004488015753979422,0.18549310998655855,-0.310338406750484,-0.295089033324166,-0.36413539945286955,-0.10510195539917909,-0.15163024321521265,-0.21521562426427002,-0.23258180581620846,-0.1726800507327187,3
6.85,2.45,2.975,3.5,9.75,25.725,8.225,7.75,445.0,153.0,199.0,220.0,555.0,1681.0,529.0,439.0,18.0,16.0,16.0,18.0,14.0,18.0,20.0,14.0,-0.3441552697636488,-0.27677568136750036,-0.2686052319098105,-0.1822060096716508,-0.34020488474513955,0.09564706098370147,-0.2401799987462012,-0.19718403933240242,-0.4530820148426938,-0.1569731367094548,-0.30842784271537177,-0.025137703472047055,-0.3073071814463168,-0.012431661074433109,-0.31569422288371485,0.022476132484139485,-0.20596741192621465,-0.2862946379175795,-0.2902055975625753,-0.30681365464589816,-0.31236800297780537,-0.1062344060489202,-0.06356628921532535,0.3198560745443266,-0.45775029609779144,-0.2650555356053528,-0.26906110551448426,0.08562694903138057,-0.16817926897767105,-0.3837231468853867,-0.02783670940833759,-0.22165665368680593,3
7.075,2.55,2.675,3.475,10.175,26.0,6.45,6.7,451.0,162.0,150.0,227.0,649.0,1696.0,405.0,426.0,16.0,13.0,13.0,19.0,15.0,21.0,13.0,20.0,-0.3326701185569716,-0.5037319747809709,-0.06963330356369714,-0.14437268726728636,-0.37364550734856794,-0.058698891587745855,-0.19493167112396223,0.01859320285109647,-0.26078745148080884,-0.23869469105974128,-0.23709138055352563,-0.009924588387661309,-0.6461353936018897,-0.30742295005435955,-0.3622293196180628,-0.1862771651058644,-0.3876551919612835,-0.5001192145924785,-0.1714305263516237,-0.3597790845105056,-0.23740864728271927,-0.30889496046368997,0.1255134710623542,-0.2862936570949554,-0.5465098086275043,-0.24002106803721412,-0.2645148755875515,-0.25450926635114324,-0.3891344107634621,-0.2661221805750852,0.15252171551750093,-0.15477390694715307,3
6.075,2.45,2.475,3.125,10.7,24.725,6.325,7.625,383.0,160.0,131.0,177.0,665.0,1680.0,388.0,487.0,15.0,15.0,13.0,15.0,19.0,18.0,19.0,16.0,-0.2807994449779452,-0.10267015486514004,0.09880633647764156,-0.08521662252590308,-0.39732396777951473,-0.2954665740884681,0.09697085131853538,0.3072048303048729,-0.11380801739159767,-0.3418089610625425,-0.11205844800855619,0.09276723665677016,-0.37607023620859614,-0.2333147518252491,-0.22775658371745236,-0.18704689558051615,-0.46655037137923794,-0.3454371392994755,-0.2770954382429283,-0.03822325940948351,-0.3113585912955325,-0.16625237002109106,0.02491766611548623,-0.20865158288377156,-0.5127174876961667,-0.3182742129867074,-0.02932843303219394,-0.05417909229036234,-0.2904677601690208,-0.18848448364203654,0.0638130873533046,-0.2541210110387238,3
9.35,2.525,1.95,2.85,9.325,20.55,6.05,8.825,582.0,165.0,131.0,186.0,607.0,1314.0,361.0,526.0,16.0,16.0,16.0,18.0,19.0,16.0,12.0,16.0,-0.1879628991122055,0.006825739321203259,-0.21536513683008612,-0.20784445218559425,-0.579061882801007,-0.3829783201197877,-0.11623681521974863,-0.03496169255393329,-0.4260086521680244,-0.15380127825961448,-0.133314369497772,-0.04471980372450282,-0.23927107239768589,0.08222201203377387,-0.24200087633203232,0.051942499051166865,-0.5367569856985548,-0.08240861725123895,-0.4110739102856104,-0.3453144605957735,-0.31517425088792284,-0.2645513683841111,-0.4000121938069797,-0.17805817483785488,-0.25311411135494855,-0.055768381257027114,-0.25676043647884583,-0.3130397687146287,-0.3069607886072075,-0.06606166551476364,-0.3987390840403376,-0.40429441286644185,3
7.975,2.3,2.075,2.05,9.475,18.1,7.375,7.8,452.0,138.0,113.0,130.0,659.0,1189.0,424.0,467.0,12.0,14.0,12.0,10.0,21.0,19.0,13.0,15.0,-0.16171646678351567,-0.01437050167731817,-0.2535141803642488,-0.3063323904941657,-0.18107349130213973,-0.05076420876547104,0.06595509448157816,-0.18394609836668124,-0.1275055691569206,0.07343851462225928,-0.07187612142526512,-0.2783950216319227,-0.19635792564678972,-0.0386416525601062,-0.22651641335100314,-0.3678092870604516,-0.5384682250425539,-0.253855091411028,-0.23626864763889646,0.06757854237527681,-0.3724294002694179,0.1552461791439202,-0.06965628579520652,0.006413330317903345,-0.2807770787249453,-0.2710898965697196,-0.35832962321427925,-0.39810849362356693,-0.3107524282958966,-0.5210420386355528,-0.43462010790425526,-0.4636956901367677,3
7.675,2.5,1.975,2.075,7.625,20.975,6.7,7.025,489.0,158.0,121.0,140.0,482.0,1466.0,440.0,520.0,20.0,18.0,14.0,12.0,18.0,21.0,20.0,23.0,-0.3628140548870728,-0.053115434875115906,-0.23235361178088398,-0.32886373573151867,-0.43784119370890084,-0.21087507677909928,-0.27863930817910265,-0.441003730712599,-0.2853118612752866,0.011288465082243808,-0.10405398004099804,-0.14136340457534635,-0.510018224205428,-0.2601922316717342,-0.14147729529486877,-0.1646693823763407,-0.4363345096249537,-0.31110940216164495,-0.2202908852565749,0.014515772415846027,-0.6779430761930322,-0.09851949273636144,0.10052078957461369,-0.12662480433767936,-0.48050713729547584,-0.09932973217697225,-0.21833061214776267,-0.20150512424598968,-0.536090424852015,0.3340944126081518,0.1881569107309506,-0.1333466540461721,3
7.9,2.925,2.45,3.7,9.7,32.2,7.025,7.45,488.0,188.0,158.0,255.0,624.0,1973.0,477.0,505.0,11.0,15.0,14.0,21.0,19.0,16.0,19.0,16.0,-0.2959112936351801,0.06036828338750508,-0.23346033752302375,-0.3738045140230044,-0.5949939816127445,-0.5118350913995029,-0.5437508229139217,-0.43222012701794166,-0.5012613610210288,-0.4456732666503854,-0.359613876650305,-0.2362640167047679,-0.510662563114977,-0.24048772488956613,-0.41378468477798763,-0.1669028532040715,-0.44238394464758435,-0.3927801478345308,0.03670090615606922,0.0019948675656877722,-0.39003315862668886,-0.30729491656579194,-0.09306391613594642,-0.043703143011586974,-0.4722571386406701,-0.08191424361351347,-0.16736846827068166,-0.4259125906431885,-0.4193764017622886,0.15645827239921012,0.07301945549346685,-0.3080730371791218,3
5.775,2.525,2.25,3.125,10.725,31.3,6.975,5.625,339.0,158.0,149.0,221.0,686.0,2132.0,456.0,340.0,16.0,18.0,16.0,17.0,14.0,18.0,18.0,16.0,-0.2992281905588845,-0.4776201745679459,-0.3179954798960811,-0.4726692299156736,-0.5273458931290079,-0.3228142779381937,-0.2560303348212373,-0.1429546254675457,-0.45601548411587883,-0.3840610239273189,-0.22036129836612395,-0.29138822720489393,-0.3218587666641642,-0.25531133812806456,0.016625536501430532,-0.3226414688437644,-0.3104185606639888,-0.0694303357736155,-0.07051804066883222,-0.21300335638508763,-0.5076115170730653,-0.12805482814739805,0.009205139478312876,0.037512155704570276,-0.3821260817217742,-0.24993902534004778,-0.11186704514485528,-0.16029781640871957,-0.19597571153313534,-0.2706257980264781,-0.10521738270424767,-0.2407919716741167,3
7.725,2.475,2.375,2.9,10.45,28.95,6.525,6.525,402.0,158.0,136.0,181.0,659.0,1858.0,371.0,376.0,13.0,13.0,12.0,18.0,17.0,19.0,13.0,14.0,-0.14790580470418732,-0.5048156258220069,-0.20232427551272952,-0.21786645909442573,-0.606605256209284,-0.4253835204556619,-0.07361298395825071,-0.1795553752533567,-0.23975589122675836,-0.26873767792346365,-0.04618228505269496,-0.27427988165304706,-0.17332270154529053,-0.22389552906124383,0.11176075784885672,-0.27341517392046927,-0.5452297731373639,-0.17002368025140743,-0.3972033351539131,-0.4141361164147535,-0.49367298951857824,-0.09047765100396088,-0.09468279158000101,-0.21266325256896834,-0.25018610576567507,-0.26798884535206635,-0.08047490694001906,-0.267532542150884,-0.3789149410358684,-0.41229854346281186,-0.3508017561477614,-0.2013759828551532,3
7.725,2.375,2.6,3.3,10.975,27.825,7.175,7.3,414.0,144.0,141.0,217.0,788.0,1758.0,448.0,397.0,16.0,14.0,17.0,19.0,21.0,21.0,17.0,14.0,-0.08096188719747939,-0.32561846570475794,-0.11340108390788987,-0.5300957247520683,0.010709468694077318,-0.34216741799239875,0.23484204945501433,-0.36819643409656305,-0.20130486977260328,-0.4201570566301517,-0.1052680164756577,-0.38988358940583284,-0.39812631282226646,-0.37172615815718996,-0.09905725493342327,-0.21573979917144365,-0.6765293341130013,-0.39502002959589166,-0.11620063959968902,-0.28710062661271324,-0.5739934455033142,-0.36385930382631326,-0.05404200596398321,-0.11877900609614127,-0.2984405760874291,-0.3778096410718888,0.004352096853007447,-0.1858631727300428,0.062033856416268456,-0.34120093347138025,0.2422435382212581,-0.3553186479030001,3
8.1,2.575,2.475,2.7,10.3,26.15,5.7,7.375,519.0,136.0,124.0,166.0,709.0,1783.0,323.0,373.0,19.0,14.0,14.0,14.0,16.0,16.0,15.0,13.0,-0.09182948364102805,-0.17034794217784355,0.20435439380610407,-0.33747365905096943,-0.18093198523125334,-0.17056013395141076,-0.1334370806828602,-0.39453990120235094,-0.21995056904298071,-0.49325832149563725,-0.2093688821905153,-0.5337098639470003,-0.4327183341619876,-0.4100817896163511,-0.4131958344109084,-0.3448094884334175,-0.578341416060276,-0.22682321138163708,-0.09009341606943354,-0.07369871998784469,-0.3816691259085984,-0.14341422351298241,0.08409335400152271,-0.16810971298315114,-0.20100845685563304,-0.47087708621971197,-0.3429925746291307,-0.19388518447218675,0.010756613718631987,-0.3660404959451055,-0.30514959505062295,-0.1861699260916484,3
8.15,2.35,2.5,3.05,7.95,28.525,6.175,8.55,508.0,122.0,155.0,179.0,469.0,1816.0,380.0,547.0,13.0,14.0,13.0,15.0,16.0,20.0,15.0,17.0,-0.32738470399355635,0.07870861291083567,0.04212384098198819,-0.025700712232480792,0.02569255787342645,-0.2434910534010559,-0.2994416427695835,-0.09218728848101672,-0.3287067967851092,-0.3684193911824227,-0.3197718597794341,-0.2297905860044522,-0.46730607385123996,-0.41460904374231294,-0.4581063594055942,-0.4046131596033355,-0.07520092863572189,-0.1099759821118141,0.005636685854851804,-0.39786074142757777,-0.258386393054654,-0.5254570690180588,-0.11626542991743907,-0.4431915900187434,-0.22994970207535484,-0.07062705072277564,-0.25561076171856295,-0.4305769416418511,-0.3332666324955092,0.08449780724388639,-0.36047575365775686,-0.2488655798753471,3
5.65,2.45,2.45,3.4,9.275,28.125,8.65,7.625,351.0,126.0,123.0,211.0,621.0,1854.0,563.0,473.0,16.0,16.0,10.0,16.0,18.0,16.0,17.0,18.0,-0.29846996588112457,0.01652865007932617,-0.2935465684697623,-0.2533227057118519,-0.22001027033622006,-0.28543666949375995,-0.2701993921384085,-0.39474037607844936,-0.04481152718287351,-0.09545775890000516,-0.18875242028356215,-0.3268949332618803,-0.3424804735337516,-0.26055784994959613,-0.3040568051274114,-0.33597898659347025,-0.4643346380460184,-0.4497338757075896,-0.10627557997573923,-0.0327665966304707,-0.4505673653728215,-0.14401205048204138,0.13708109498974463,0.0916862616305476,-0.24927446413470006,-0.04265891009107904,-0.18805049747141164,-0.24196327200453233,-0.1381991307172736,0.2608238728405906,-0.16010823755488932,-0.3496865765241893,3
8.875,2.475,2.425,3.375,10.175,33.375,7.65,7.775,602.0,163.0,125.0,215.0,697.0,2295.0,538.0,475.0,18.0,11.0,14.0,16.0,19.0,21.0,19.0,14.0,-0.39345922642008313,-0.02368457825980603,-0.2654706065594307,-0.40046762156804167,-0.31352743827248175,-0.2401183489070941,-0.21260310207945682,-0.304220376413259,-0.2745018423390512,-0.40145560860706503,-0.16347531638768423,-0.3704880003125691,-0.5000051622789184,-0.34354960125577316,-0.25120578039486646,-0.34345593976778893,-0.6371951839635726,-0.587663979686861,-0.38033781584722665,-0.29040908136173454,-0.7856511699137111,-0.6208375443385664,-0.5906632110503531,-0.41238299499380265,-0.6200785043999155,-0.277857669423642,-0.40589270144817924,-0.4158762311225051,-0.23075793264111785,0.05286680781191602,-0.3824260058462167,-0.4633351943912608,3
7.825,2.1,2.525,2.9,10.2,25.625,5.475,7.775,505.0,139.0,126.0,179.0,638.0,1870.0,324.0,455.0,20.0,17.0,14.0,12.0,15.0,20.0,18.0,18.0,-0.3865152618022458,-0.0847586104803056,-0.1414820741168736,-0.30706891433669464,-0.31278255083732454,-0.40301680208456603,0.1334056862811346,-0.17805617654167497,-0.0398512228762818,-0.5027672210046539,0.13308614062456303,-0.23203563875564898,-0.5432314511612493,-0.2558340170909324,0.18275245455033773,0.0944091834089805,-0.35822794450180295,-0.23853040750547744,-0.2774948127237644,-0.37209416771350207,-0.5690340663083814,-0.190439793517377,-0.2505661878004745,-0.21412405870755413,-0.15108854691582785,0.03225437432608529,-0.06595610459424653,-0.012794910404533268,-0.1413460776122781,-0.1794443188417831,-0.13363786861905302,-0.14172472081288312,3
9.225,2.525,2.425,2.25,11.05,23.95,6.025,6.225,645.0,158.0,145.0,137.0,664.0,1565.0,325.0,383.0,18.0,18.0,16.0,11.0,16.0,15.0,16.0,16.0,-0.5993960738167522,-0.4268077307668936,-0.4901095939011362,-0.33968518470961173,-0.37058688636530357,-0.426736185946759,-0.006267534626710122,-0.359941174305145,-0.4361492348999408,-0.6015020459493854,-0.1493779422357419,-0.26788186099183703,-0.23215819399511978,-0.5856436734769607,0.012976631817353531,-0.22244792347582076,-0.30502890728877213,-0.33245365324759163,-0.2966780313363259,-0.05770007125663821,-0.2594961455917849,-0.1399850182943904,-0.14482319961280354,-0.0649959115742611,-0.05174568061318504,-0.01756322285047618,-0.026492626910268817,-0.21267340870493226,-0.5212577952117128,-0.3294723795821253,-0.3471990916909709,-0.10469910547459682,3
8.075,2.65,2.375,3.025,8.2,23.75,6.925,6.75,553.0,131.0,131.0,186.0,540.0,1501.0,375.0,440.0,17.0,10.0,11.0,17.0,17.0,19.0,16.0,15.0,-0.6048251422332249,-0.5212550660233394,-0.5554932952421545,-0.3147511774992782,-0.15944249995234694,-0.29525133493971734,-0.11304089947821278,-0.3314707567834254,-0.39400615033488734,-0.2957770445481514,-0.033007280616581966,-0.14475549924835593,-0.5069183291495846,-0.4960073426076002,-0.3326508428443068,-0.2652318289874829,-0.6394793370133399,-0.6174673331583659,-0.5068077783943365,-0.19489564266255044,-0.4206834376200702,-0.26176157089522184,-0.39441626418277087,-0.3380463987312369,-0.2991466990674283,-0.5478858883666552,-0.22778442081130754,-0.24365580584308658,-0.4457246702316348,-0.13880263021974681,-0.45634622012564324,-0.2828528454132195,3
6.675,2.325,2.275,3.7,12.2,21.25,7.625,8.85,395.0,128.0,124.0,244.0,860.0,1272.0,444.0,502.0,15.0,9.0,11.0,16.0,19.0,18.0,14.0,14.0,-0.14288126170982873,-0.17607101264394662,-0.22489996828466227,-0.16844270325209174,-0.1419075639233954,-0.23301320475808265,-0.02533112501849083,-0.5355660458432834,0.08821652799795422,-0.0554124088177221,0.19672584789571834,-0.6032484681597228,-0.3695496003598732,-0.2579748481213138,-0.1384110417231486,-0.3489314511562631,-0.743146036143525,-0.22868150480904534,0.13542679298315685,0.0030116031276252765,-0.37119051974658135,-0.1857914032303978,-0.20500641401320455,-0.06674432941841722,-0.11314453269726928,-0.4420359915387681,0.011771296423904534,-0.5659721278954576,-0.15198577850625455,-0.306592293451411,-0.32340542501226943,-0.15899707579096262,3
8.375,2.65,2.575,3.4,12.2,27.85,7.625,9.675,458.0,149.0,125.0,225.0,840.0,1735.0,449.0,586.0,12.0,14.0,15.0,17.0,20.0,17.0,17.0,19.0,-0.2157235272948737,-0.17519367283055232,-0.39141432241837115,-0.12644782673397678,-0.14060740627485735,-0.29718352155284244,-0.1694739077226776,-0.21006229796370005,0.15129379440040922,-0.11721549996020007,0.017076761853761384,-0.1359043314134463,-0.2626796891381574,-0.30908007648700403,-0.07216486272725753,-0.154816632038447,-0.7355913560073798,-0.42313432294957337,-0.23200166032887293,-0.26353406552889014,-0.5610541022812243,-0.4009697158908732,-0.37167153595697666,-0.22891898295298585,-0.5045608770458198,-0.7976618807569416,-0.4300708459081858,-0.5493477220217625,-0.3319423855809726,-0.38679446996567834,-0.140653655807192,-0.12458317893203032,3
8.325,2.2,2.475,3.25,9.675,24.9,7.05,7.125,544.0,131.0,125.0,184.0,678.0,1487.0,433.0,460.0,20.0,11.0,13.0,15.0,22.0,17.0,20.0,14.0,-0.3403841078494369,-0.018524041974342126,-0.17837522208830717,-0.010860218744995995,-0.1137122668547374,-0.07274984224205804,0.05283925114340208,-0.08152355692393357,-0.036287447559039114,-0.2880230803648416,-0.04074844482961206,-0.02167078596771669,-0.26728529313594274,-0.4305618786105542,-0.3224827019113477,-0.28582337523310364,-0.7795985884590251,-0.5224741046631325,-0.3431464434953718,-0.19606868021009913,-0.32419635452184453,-0.33372690868404203,-0.09345223789966879,-0.07655574570915742,-0.37170602903916394,-0.36675244427174936,-0.1560094078420136,-0.35951804003182886,-0.24351502806974654,-0.03768912473375282,-0.30857407349482135,-0.012208459590771572,3
8.175,1.575,2.175,3.425,12.475,31.05,5.825,7.2,542.0,81.0,101.0,195.0,809.0,2106.0,336.0,381.0,20.0,8.0,10.0,18.0,19.0,20.0,15.0,14.0,-0.31623013404107403,0.20757323064368888,0.11701584307619205,-0.0007202296748786336,0.007247889915667027,-0.11609183524595751,-0.5066233361728616,-0.02152340373843229,0.251221056552656,-0.45429525590772785,-0.22891485947194332,-0.26508092038262365,-0.26542862864864103,-0.17257900963958564,-0.2032726283458349,-0.2802022231765148,-0.7736745508344208,-0.639270681368452,-0.500016149730833,-0.1288052766238931,-0.6080453313256547,-0.3742493717553743,-0.1474468108672563,0.07284492921187775,-0.20198804668033032,-0.48785029598366714,-0.14290050659265524,-0.23302973241078617,-0.08820387084323567,-0.1668559164185182,-0.07113372982491446,-0.23678313288280928,3
5.675,1.8,1.975,3.1,9.6,28.1,6.925,7.375,378.0,102.0,123.0,189.0,566.0,1801.0,385.0,490.0,18.0,16.0,18.0,16.0,15.0,17.0,13.0,18.0,-0.31179492719526375,-0.015772284772350792,-0.026700135991989907,-0.013184527082632427,-0.15396419226068658,-0.06361189456072945,0.13207936010729246,0.006770101375944334,-0.15996785525463514,-0.272220078935023,0.0645709782784817,-0.30681986408304707,-0.23473016721812323,0.02040474822551579,0.0740161563558808,-0.1594571409202567,-0.2626877288287465,-0.17985819378196277,-0.1109905109766535,-0.12019638759882739,-0.44421574152666793,-0.2794242544368093,-0.3158648289802931,-0.2128858361520133,-0.27921898138451295,-0.5353649572158039,-0.3912660799257466,-0.2637631592113388,-0.35053808369534,0.10354191901002824,-0.03692059374382646,-0.06947165075693594,3
6.6,2.3,2.325,3.475,11.65,24.75,7.275,8.1,411.0,131.0,136.0,185.0,662.0,1685.0,427.0,533.0,18.0,12.0,18.0,16.0,16.0,19.0,15.0,18.0,-0.15558283608172685,-0.02291106994252566,-0.456467156989587,-0.13129010797597512,-0.23940565295752606,0.03933119737776796,-0.01007736653937655,0.03173773061071873,-0.2347921285327539,-0.30160720752663905,-0.1275959735738253,-0.12348562621861561,-0.06097149366018572,-0.2498160373036074,0.009231437828688703,-0.2386489793426549,-0.176534710189263,-0.4043193891566167,-0.1524596951565581,-0.2733593388910048,-0.6548152055813808,-0.5857434454374288,-0.32426182297639644,-0.22597039977455147,-0.6512277217112087,-0.8719770872741517,-0.5809656755674137,-0.4712919158547622,-0.35701170571576407,-0.04498923297746961,-0.17161519786843124,-0.17648600851421173,3
7.4,1.925,2.025,2.35,9.15,22.1,5.95,6.7,482.0,107.0,107.0,122.0,511.0,1430.0,375.0,411.0,15.0,15.0,8.0,9.0,14.0,17.0,17.0,16.0,-0.15100239290372025,-0.16685551656626008,-0.3169658507283178,-0.04884974602520944,-0.44162870636337775,-0.40198087763785434,-0.3179505436084121,-0.3251359352196506,-0.192403676633676,-0.08024083611090946,-0.18245962894475176,-0.23540011829077784,-0.1530649066797326,-0.14818176112795745,-0.06400372145005663,-0.1638890994928108,-0.1709895428338418,-0.2280549396255138,-0.1285448184557047,-0.3345383837354221,-0.43438354471869,-0.0940123817597934,-0.03616790709995799,-0.02395156247845731,-0.4793676552882062,-0.3066059381512646,-0.26759024320519303,-0.37985642016587734,-0.16167105351687852,-0.2213643607978078,0.0013667783475485122,-0.26548223034249036,3
6.35,1.65,1.5,1.925,8.675,20.5,4.925,6.2,422.0,62.0,78.0,103.0,498.0,1184.0,278.0,363.0,18.0,8.0,13.0,15.0,15.0,13.0,17.0,14.0,-0.31976379581676384,-0.02902040540177479,-0.12415898487898479,-0.0048089992276154955,0.27609553619050214,-0.6163922092716804,0.1081465324884208,-0.24345433409277786,0.07696320305872521,0.08530757933704011,-0.09754882360972456,-0.0445907115928429,0.02318664259806719,-0.24395133984998926,0.13731561145287963,0.0017884264500388329,-0.1323021103804087,-0.29016918552480586,0.1926318940232224,-0.025774605221730057,-0.23485313135921856,-0.43799793368236944,-0.11623918957496365,-0.11903685447027204,-0.12879181655166927,-0.24974929305919674,-0.14819205898540347,-0.2708457315931556,-0.2958775876717236,-0.37863308669492574,-0.26173378787195106,-0.4732486190420328,3
7.475,2.075,2.35,3.125,11.65,28.95,7.9,5.75,498.0,110.0,134.0,184.0,734.0,1589.0,456.0,330.0,17.0,12.0,13.0,17.0,17.0,15.0,15.0,15.0,-0.5192521385761925,-0.16218244275038785,-0.2804969315659507,-0.24022365963536862,-0.22844776389772004,0.009541741970144683,0.14129985624251698,-0.09959529639910225,-0.22880382774072403,-0.11448998566334813,-0.04503954797018331,-0.15000926363930028,-0.5686259273138596,-0.6392996738251269,-0.3037198849737694,-0.1338123843637078,-0.6002560321462584,-0.3951579252718545,-0.3230437170178809,-0.4347794614064361,-0.3291043315194769,-0.4644398090231547,-0.12346005819435596,-0.23293603702748597,-0.21035604206531774,-0.40313606248261796,0.010947834885223783,-0.2233522915039772,-0.2561210965883641,-0.26177721402020854,-0.2819839259629232,-0.05781784349703746,3
6.925,2.4,2.125,2.7,12.525,26.55,7.175,6.725,454.0,155.0,124.0,162.0,793.0,1502.0,430.0,450.0,18.0,17.0,10.0,14.0,15.0,18.0,18.0,23.0,-0.21006272675958312,-0.02356902605021427,-0.0964764295339429,-0.34327205294276164,-0.3381401434057291,-0.0036469260748306716,-0.0935358434039475,-0.18666737993901844,-0.2304759774328895,-0.06326414616729178,-0.09582578478792629,-0.21945460629733185,-0.37824800870420616,-0.31375775143511003,0.07257401981398842,0.17045951910786572,-0.4696526071118844,-0.17947211348276576,-0.2702731438891647,-0.4081394156915467,-0.1293655463752997,-0.2416845248814809,-0.14473518673126037,0.07202686204337264,-0.2480378936567271,-0.35879975385639795,-0.12862217505994372,-0.13442974093036658,-0.39087404509225415,-0.19202241132905834,-0.05127868840716595,0.24853994513271513,3
6.8,2.675,2.25,3.325,13.5,22.6,5.575,7.075,460.0,150.0,119.0,219.0,924.0,1371.0,341.0,512.0,20.0,12.0,14.0,17.0,19.0,16.0,21.0,18.0,-0.5840266720431733,-0.09884573144318316,-0.31648509686044823,-0.1435553101441537,-0.2522859027490777,-0.157636977678772,-0.2846809281083296,-0.03247983118385395,-0.13869158048742866,-0.1209849105064243,-0.3470695164282685,-0.040334601051112175,-0.3972149795591721,-0.08795449054568427,-0.3426855152332644,-0.050264607972080225,-0.7835424299186762,-0.5837395712046336,-0.5321144534578576,-0.351610120281347,-0.6349896618987714,-0.43161553173591954,-0.5604864702128778,-0.5430952470497845,-0.3606947199723491,0.028274196375363474,0.010292701811679189,0.1187246382348879,-0.42053162977160047,-0.032035331246392414,0.24127043737847945,0.05251849455209439,3
5.7,2.225,2.7,3.275,10.775,29.65,6.8,7.675,300.0,126.0,170.0,209.0,727.0,2116.0,454.0,447.0,13.0,16.0,16.0,13.0,18.0,21.0,16.0,18.0,-0.2413542585170436,-0.42711005023106785,-0.3213456430230284,-0.35435084696713987,-0.24688721887435913,-0.3316766603629567,-0.1464037522568084,-0.172362197884078,-0.37564272066290544,-0.3946964123360728,-0.06171934698896017,-0.09317365953971715,-0.43926751370386247,-0.2831313650157307,-0.2475678343063158,-0.057188253061969306,-0.6735680368940401,-0.47655552114205657,-0.45155522788720787,-0.23210239996099738,-0.5195764169013328,-0.06324698008379441,-0.08988519888424157,0.031647859530550736,-0.45889321603999333,-0.21911435985164124,-0.33618338703960116,-0.1999596841275513,-0.21394622666850235,-0.31928496112648574,-0.12287120196427156,-0.5485177518682448,3
8.5,2.275,2.8,3.75,10.675,26.6,6.85,7.875,536.0,134.0,158.0,223.0,730.0,1770.0,425.0,509.0,16.0,14.0,8.0,13.0,18.0,15.0,18.0,21.0,-0.5355279897079246,-0.4806922146578679,-0.2438682370578117,-0.14290462423567785,-0.17405633795826048,-0.24523782113533169,-0.1874809341091966,0.13041189355416247,-0.1924738214536039,-0.17759609848744498,-0.22572552237876034,-0.04991756525510072,-0.33517826304866033,-0.2434579906865934,-0.14797747094555436,-0.07262966270571715,-0.5264988678804856,-0.2295149177441375,-0.13843304790701133,-0.23712488774628676,-0.5292819418701146,-0.3766676301949379,-0.0034290561264804726,-0.09888686863096771,-0.2560193762504456,-0.10275031280570313,-0.3146882521965508,-0.28902225787248076,-0.37688505040495207,-0.35187346330188907,-0.13889125127553203,-0.16050649211673407,3
7.275,2.05,2.2,3.275,8.95,27.05,7.175,7.0,510.0,129.0,121.0,217.0,613.0,1694.0,432.0,444.0,18.0,14.0,12.0,18.0,18.0,19.0,16.0,15.0,-0.6578189828643374,-0.4911929757574557,-0.4755083505685763,-0.22179527832275944,-0.23920949619658935,-0.22166527598181682,-0.29692815637587716,-0.30624880128692245,-0.29649155461173565,-0.3417617615384343,-0.3022533809306558,-0.3860344227584203,-0.5111858231783226,-0.4529063842218253,-0.4783571919206606,-0.3045225000880735,-0.5744532475648094,-0.35073983683140675,-0.38299365419540393,-0.23813330260838272,-0.7086467741216049,-0.7892802806666231,-0.37178539198441135,-0.3088523962688797,-0.38956512129557397,-0.18923925982077008,-0.026871757356966678,0.22428615208153577,-0.2209008690723089,-0.3363946943426937,-0.10159747080810046,-0.2528043197970391,3
5.05,2.4,2.075,2.825,11.4,21.375,5.775,6.55,277.0,157.0,137.0,183.0,809.0,1453.0,383.0,432.0,18.0,18.0,16.0,16.0,21.0,19.0,18.0,20.0,-0.11762582836073536,0.05326241387806121,-0.13957351056398737,0.08687265635642989,-0.46675883443802585,-0.06692140744015643,0.017214569457432397,-0.1563510962911579,-0.36262843954845075,-0.008649827236128161,-0.04946108593487704,-0.27640441695624246,-0.4162391267540912,-0.06934272931396974,-0.04447427987706777,-0.19240178624577922,-0.6460882095494136,-0.44335954383882054,-0.3961870050638889,-0.023617244488604208,-0.4969717132138171,-0.20102635300540653,-0.10749238088282366,-0.04305888408906157,-0.4055295969037935,-0.2731230120428192,-0.37363468786648213,0.013789393062014254,-0.28623211065287324,-0.2500256460867526,-0.08826329324752212,-0.3782349086878303,3
7.15,2.7,2.65,3.55,11.85,27.725,7.25,7.675,500.0,171.0,169.0,239.0,808.0,1922.0,494.0,475.0,13.0,14.0,14.0,16.0,19.0,18.0,18.0,22.0,-0.24633753218368834,0.06263266394410147,-0.4110638917319938,-0.23028322880842728,-0.42010250980691255,-0.08172874485526223,-0.09407643664999839,-0.15524183401653188,-0.8234711055058903,-0.6318849698012741,-0.40709485479628277,-0.3205070630150026,-0.6224153976838638,-0.30262990157895864,-0.1412182828628802,-0.2058093039028795,-0.5604224685793806,-0.43933711053283697,-0.1313980366087151,-0.3353920782375293,-0.6236582932587776,-0.5186129535798295,-0.13943286466434543,-0.2787899829311584,-0.7315185025981901,-0.5473799145615765,-0.25771566049539124,-0.17207025089074404,-0.2884585962016315,0.14808860975421556,-0.06034163978672886,-0.2159948214704854,3
5.375,2.2,2.15,2.525,9.85,24.15,7.35,7.475,329.0,117.0,134.0,161.0,609.0,1593.0,465.0,454.0,16.0,12.0,14.0,14.0,14.0,19.0,18.0,17.0,-0.31036533578925846,0.050646584518298024,0.16411123060442398,-0.03097382126700952,-0.03143721719452351,-0.17496046395874715,0.15416533290029902,-0.110900190227509,-0.4068864999362889,-0.23176143606995858,0.012919338702039675,-0.11937373983164036,-0.4441955466533552,-0.4523022339098781,-0.3284681265371921,-0.30350816958425353,-0.5559865470837495,-0.39816979009039605,-0.28818254650432296,-0.32185343450349446,-0.37318562891068685,0.0344962447098505,0.1521307186123622,-0.08829688256700913,-0.45904750243353304,-0.2314976709763262,-0.19561257644269334,-0.177010273869518,-0.4606079814168063,-0.1377550128530672,-0.3179529621426508,-0.5382165039628517,3
8.225,2.35,2.0,3.05,7.525,29.525,8.4,6.225,398.0,134.0,106.0,170.0,437.0,2003.0,574.0,377.0,13.0,13.0,15.0,12.0,15.0,20.0,19.0,14.0,0.2279825570572463,-0.29576771179913536,-0.22505143468175934,-0.11901732970536555,-0.1388733709332145,-0.08018703556373329,-0.20049469949205334,-0.24005818608294174,-0.03810066516440781,0.034044899701572734,-0.27950719805334145,-0.13335191265026655,-0.22760392255274553,-0.22659465993555408,-0.2836023920170492,-0.1631645887036537,-0.2899157548123952,-0.28179799134605726,-0.32476167648766013,-0.4313162065090009,-0.6210386897773199,-0.19241515174992288,-0.03234182870598321,-0.21621431236614408,-0.6186438186998083,-0.4090924566587559,-0.2620904041470687,-0.3200783507444847,-0.22822443616009708,-0.20843998243933864,-0.1880916555881073,-0.27073941618256614,3
7.875,2.5,2.4,3.125,10.2,32.05,9.775,8.675,453.0,155.0,146.0,190.0,668.0,2160.0,665.0,547.0,16.0,17.0,21.0,16.0,18.0,20.0,19.0,19.0,-0.15252795113097423,-0.1719038418159345,-0.3063578237668487,-0.2956063095832844,-0.5130428772596036,-0.3621153713519313,-0.2884907452032725,-0.16521570933754456,-0.23775282063776715,0.1641895546590887,-0.110732167579756,-0.10910272469188542,-0.3156664314160282,-0.24609248818572416,-0.2968058458187722,-0.10572049927169075,-0.6501749613313572,-0.5195242176154788,-0.4391977326132125,-0.5252606668137445,-0.5730834899405343,-0.034417307266119065,0.08166153799323231,-0.07681878757210485,-0.7190350104452845,-0.47269982614661404,-0.5409997518997781,-0.10779531109745968,-0.3016590621338277,-0.30550632696232055,-0.25009386958384155,-0.3960100168276957,3
7.025,1.975,2.5,3.05,8.375,26.8,6.425,8.425,434.0,118.0,136.0,169.0,582.0,1685.0,387.0,479.0,17.0,15.0,15.0,18.0,20.0,20.0,16.0,18.0,-0.3011128596131063,0.14360647270735535,0.008118401499622507,-0.10299223379488087,-0.3539192149904701,-0.17520495787700452,-0.07781200413483638,-0.17392580846780575,-0.09641088570854488,-0.10894624344306954,-0.11161330291407401,-0.2314163886447397,-0.2250724127414421,-0.3006503368206186,-0.22386872487739007,-0.049263972978840796,-0.5617409520971669,-0.2303440512113105,-0.0838481735646784,-0.24224416922687445,-0.5514878498337591,-0.2470012144793424,-0.36262148752764867,-0.20861781640752816,-0.41430532112969926,-0.17524419464734659,-0.16204232721724618,-0.24294903803952403,-0.1480998512439776,0.0948476751958563,-0.012418464934391119,-0.06565103867603413,3
6.625,2.425,2.55,2.975,10.525,25.975,7.375,8.6,425.0,158.0,136.0,167.0,667.0,1580.0,462.0,549.0,21.0,18.0,12.0,15.0,17.0,19.0,16.0,18.0,-0.7980154118705716,-0.5111936995852012,-0.5066332427567419,-0.5323092528237532,-0.37801077785268955,-0.2989462513795009,-0.26867296756368736,-0.0893443621137298,-0.09756638101832857,-0.03860920478524724,-0.19949944862584956,-0.010991371346183176,-0.10500705789309507,-0.1675702899736061,-0.00807713495583559,-0.3292557990498666,-0.5240149979810064,-0.5386634980494891,-0.20070518854575023,-0.32801601613977477,-0.4916770157944234,-0.47033630608701643,-0.3491088372544801,-0.1389474253434548,-0.5628234789584348,-0.5584209276651031,-0.3482612757427047,-0.3217551967504045,-0.353583671392494,0.0697013429393848,-0.19748768099252478,-0.3954450342068527,3
7.625,2.8,2.25,2.325,11.75,21.1,8.425,7.575,438.0,163.0,113.0,133.0,857.0,1414.0,556.0,501.0,14.0,13.0,13.0,12.0,24.0,19.0,22.0,18.0,-0.14242821128855165,-0.20379532675033324,-0.22016675508822794,0.18520575503325729,-0.21441666996319825,-0.12205737921462549,-0.0015427278607916533,-0.08503878120434553,-0.139894517663049,-0.18971022655779107,-0.12773931930422094,-0.21863650343424085,-0.22666448084013435,-0.22600838543193932,-0.4291903053760641,-0.13085917280695697,-0.8239196885362068,-0.6606246615635365,-0.46606195331389594,-0.31923988870055076,-0.37946130310943377,-0.037246813585705876,-0.09318113571857707,-0.041319247317148054,-0.598395844895143,-0.3632906285419518,-0.26540293716979724,-0.3746988062254267,-0.5272935394655179,-0.3062144023103163,-0.26932221743598556,-0.3509028828573842,3
7.625,2.025,2.075,2.0,11.375,20.4,8.3,7.9,483.0,94.0,108.0,132.0,753.0,1331.0,566.0,509.0,17.0,8.0,8.0,16.0,18.0,19.0,19.0,13.0,-0.3381370236126931,-0.1971749125071036,-0.4096617588314843,-0.13888702302633374,0.019500475990701396,-0.26852269228334724,-0.15829278883935258,-0.011346301083561931,-0.04995011726117914,0.09254543301421471,-0.3330634454778492,-0.2721789338207213,-0.1470540613540343,-0.009851241933487485,-0.19408602019115254,-0.25372632835415404,-0.5459089081140756,-0.5040668859944977,-0.3190576446155161,-0.40673531029933774,-0.38640611511379025,-0.013030715165441709,0.022326239025699256,-0.10149255993635266,-0.5850024686091265,-0.18850162304994988,-0.3242368146305007,-0.4053549980449906,-0.423328265944547,-0.21941046315071788,-0.3483415092086616,-0.2704044012451236,3
7.4,2.05,2.675,3.05,11.15,24.025,7.925,7.675,465.0,104.0,130.0,185.0,812.0,1567.0,540.0,500.0,18.0,12.0,14.0,13.0,21.0,16.0,16.0,19.0,-0.06741155934773911,-0.010510210450510713,-0.06299061324994615,-0.19170164279644467,-0.13847100740541654,-0.14050641876721262,-0.3024808526611806,-0.5137106408770268,0.07669146023820328,-0.05046012878742734,-0.2833715470972339,-0.1813160275117006,-0.07897056978411277,0.012314979654044645,-0.4485418248078061,-0.14389258340080743,-1.0162475971232399,-0.8521448551679235,-0.7346397394900739,-0.3630573854983635,-0.6250688969823885,-0.390430590585062,-0.35380779426133674,-0.29499644484414816,-0.48852261160156124,-0.10018177184791284,-0.07420545932432182,-0.041724330546978064,-0.37754934291526565,-0.16158028149489304,-0.20655546761432106,-0.08958859704555439,3
8.4,1.875,2.475,2.625,8.525,26.2,7.375,7.325,561.0,92.0,131.0,154.0,602.0,1748.0,497.0,459.0,16.0,12.0,16.0,16.0,16.0,19.0,19.0,20.0,-0.4549115288988781,-0.466987203610913,-0.3652541954277079,-0.47028499639909765,0.04825939998881871,-0.0485447750239196,-0.3776974882395981,-0.25519289790640326,-0.19910150704791463,-0.447068191276832,-0.04412795500354249,-0.428828483619711,-0.12042435537286089,-0.13246283583881463,-0.05215445439357679,-0.3392656294471674,-0.8871515134131552,-0.7339340482512774,-0.41355123351771544,-0.3158461075998658,-0.5251733749250247,-0.12560724858891265,0.09798827988048216,-0.05525262054766938,-0.3909288365983218,-0.2556201667111477,-0.04568514390503655,-0.33194722154873696,-0.33063686721919583,-0.04578740272204539,-0.2792878270202215,-0.20624586898841135,3
7.725,2.25,2.675,3.0,7.475,23.675,8.275,6.7,474.0,132.0,167.0,168.0,504.0,1420.0,545.0,430.0,14.0,14.0,16.0,16.0,17.0,18.0,19.0,22.0,-0.18635198194079147,-0.21584034982529474,-0.23164186721755178,-0.19669533190667876,-0.0033748467914819094,-0.2432457067826815,-0.16859319409178453,0.0256576575308069,-0.2852007362896316,-0.22216052388623048,-0.004318848284830884,0.001454474064949341,-0.10447156717818454,-0.2645738506143229,-0.014510054842490605,-0.0803819253053333,-0.6221349057811204,-0.6729211814279065,-0.4357106693935069,-0.19169266612588318,-0.2535043276435732,-0.6402794210645081,-0.059473821744030625,-0.4194257565178747,-0.5039403624398369,-0.3600984200074993,-0.1317865237725075,-0.029904221041711646,-0.3691781350935629,-0.33281909378288504,-0.06965220383067684,-0.26827408707181366,3
7.1,2.15,2.575,3.0,10.825,28.65,9.775,6.8,363.0,130.0,157.0,186.0,688.0,1965.0,693.0,477.0,12.0,14.0,10.0,16.0,18.0,19.0,23.0,18.0,0.011142839369975777,-0.18251055930145324,-0.24197149599765203,-0.12604282033553896,-0.25616467048841973,-0.17478722756489048,-0.2975525729869193,0.021632697917103094,-0.2630090242088409,-0.2215957779084026,-0.30138758506629837,0.16516845630037108,-0.4096639326417678,-0.23815914605912655,-0.14672666867175696,-0.16551393295994293,-0.6591324145449503,-0.4525307682211301,-0.3712532035392545,-0.05772280186411066,-0.38857409982674657,-0.025377769606166622,-0.013930593143826036,-0.07350167308427133,-0.5977646012901169,-0.22221068827936366,-0.127110127189572,-0.2870080716824458,-0.3547245571422849,-0.09407169523741557,-0.06420548737060594,-0.18023696997218963,3
8.425,2.8,2.375,2.325,10.775,20.95,7.125,6.825,486.0,157.0,125.0,146.0,769.0,1436.0,478.0,424.0,12.0,12.0,12.0,14.0,22.0,18.0,16.0,18.0,-0.3017061503178857,-0.42716349867618386,-0.19777583574609314,-0.1707506331345902,-0.22298205419848874,-0.20608872250218085,-0.29922559920537356,-0.23394208373381553,-0.16424251987110913,0.06107498651500821,-0.2509959889463747,-0.3984099092114649,-0.28714592908200665,-0.21171730588784748,0.10139145945108383,-0.12862333914836732,-0.9587559754247617,-0.45195894126045366,-0.6157087136525113,-0.49849349303953583,-0.45841242866529197,-0.235081320253254,0.14955638559376602,0.21424034652484186,-0.39930824948993277,-0.1940281555464119,-0.16177365244395353,-0.4223957822035506,-0.5441236907376459,-0.6352351382260685,-0.34617061108545816,-0.2896200168001103,3
9.95,2.4,2.425,2.975,8.3,22.625,6.175,7.2,567.0,147.0,143.0,192.0,520.0,1472.0,385.0,421.0,14.0,13.0,17.0,16.0,13.0,15.0,14.0,18.0,-0.4385560635642599,-0.5672574175188217,-0.37697331137018164,-0.21829425898733776,-0.45703052621514545,-0.5260492733917665,-0.3600703039614271,-0.4747960087409562,-0.4813186137754801,-0.472988326362021,-0.2657043615515237,-0.493288661018832,-0.487366028451322,-0.20676608501654686,-0.12110947114960961,-0.24075731041610918,-0.6222180551253392,-0.1671465701043225,-0.09384264183940737,-0.05479253649836687,-0.5237555998786945,-0.2781962952822727,-0.3152829782511403,-0.25615065092865025,-0.32775192858138125,-0.24486826535436468,-0.2543900873516525,-0.4611629458560225,-0.35381484882997793,-0.4613948502115779,-0.30694463156747853,-0.05178712936514987,3
6.975,2.375,2.575,3.6,10.65,28.3,9.725,9.3,460.0,119.0,134.0,203.0,719.0,1631.0,533.0,636.0,16.0,9.0,9.0,14.0,18.0,15.0,14.0,18.0,-0.3188626354643588,0.02759158686250934,-0.08275607023877785,-0.13641509769964894,-0.03756577201217686,-0.023602221996967578,-0.4828179286692595,-0.13907798196022253,0.016447286712680614,0.0028717670569071816,-0.42102885326205214,-0.059254314900191465,-0.19653168758852438,-0.22683972168977498,-0.3425196831362195,-0.16226526648600748,-0.7056753766340278,-0.49609288652559724,-0.3254074182867481,-0.4457741716907033,-0.3603948028886719,-0.3070198388749144,-0.3319088185739162,-0.5099742525111812,-0.19236246261954545,-0.2582252320709461,-0.13188531166183515,-0.5773002115152706,-0.6369280291141809,-0.27634710672095464,-0.6347645025690382,-0.33047023732343483,3
6.85,2.9,3.35,3.6,6.45,27.75,7.625,9.85,450.0,143.0,167.0,193.0,436.0,1772.0,442.0,619.0,17.0,12.0,11.0,10.0,20.0,18.0,17.0,14.0,-0.6765362913894081,-0.5737739450514132,-0.01919969209655041,-0.11237652390342605,0.09898421887675139,-0.23081734667728251,-0.0032444084255993273,-0.45212055524736827,0.04097298692861437,-0.08782717543541588,-0.1866704329535223,-0.20645266467496462,0.06441817086670312,-0.14515601563418126,-0.008291035238904124,-0.23928791578913258,-0.525026976924816,-0.4585457207337483,-0.1304991172571264,-0.13518092530668957,-0.34366490380856574,-0.22405251531810944,0.17809400762238203,-0.10478711176829798,-0.10851151294004052,-0.06688969760630731,-0.09206042593623126,-0.3011382316957894,-0.5722362384279053,-0.32749492754421755,-0.44017552853539693,-0.21354702472693765,3
8.025,3.325,2.925,3.05,7.475,30.0,8.9,7.675,491.0,173.0,181.0,180.0,464.0,1948.0,574.0,455.0,18.0,13.0,17.0,16.0,18.0,21.0,21.0,19.0,-0.1283990133063391,-0.13725322407221727,-0.1485092754058634,-0.28591099809759324,-0.12380499169997118,-0.226723721181022,-0.11757287235721095,-0.17028935814504206,-0.30052496602133405,0.012271020928452385,0.18238939054322995,-0.13694217915466483,-0.3125729915866423,-0.1555712596768032,0.035783526558857706,-0.24161688367387482,-0.4168002873699149,-0.3123130457141856,-0.3363591360886894,-0.25580984191917044,-0.644728221990399,-0.2711008928711917,0.05081783936487235,-0.036688419590985975,-0.5686416189020705,-0.42342592120571076,-0.1273373616725376,-0.2500490719879453,-0.22327276166601193,-0.20735188871659155,-0.18255498525252106,-0.25454843984941294,3
7.175,3.875,2.35,2.975,8.6,23.4,7.3,7.45,494.0,219.0,146.0,184.0,519.0,1428.0,493.0,410.0,20.0,12.0,17.0,15.0,15.0,19.0,19.0,13.0,-0.2214829687019822,-0.11800770416254223,-0.07278664516437108,0.14228879882396245,-0.31956096571593284,-0.291836047482026,-0.08164260652237224,-0.10959923032130284,-0.3018247440674757,-0.1967771540243001,0.06197847997676474,-0.07383279993770908,-0.2725743662077288,-0.34547533409044073,-0.27116097707061143,-0.16109759856094366,-0.25068154917540497,-0.40886251951802965,-0.16758899987347797,-0.1772256493049761,-0.2732464491779621,-0.3334018814177457,-0.022695801836367074,-0.1574802047000996,-0.11023006712626607,-0.23510163679485405,0.20084988531833994,-0.45276070387099593,-0.17182637572578205,-0.36779351510241387,-0.12287974614477218,-0.3211833796858616,3
8.175,2.75,2.05,2.175,7.95,22.05,7.15,6.675,495.0,156.0,113.0,131.0,511.0,1362.0,446.0,384.0,16.0,10.0,12.0,15.0,19.0,17.0,19.0,14.0,-0.18770451496843538,-0.009645582455771667,-0.24413412485731545,-0.29033414651948913,-0.31081767822048356,-0.0645268118078938,-0.1597463021593278,0.009208928980632936,-0.08252932365242323,-0.02925104447442613,-0.07269465522705679,-0.22578753985650882,-0.3545870535146337,-0.46367574026799724,-0.3351046665276947,-0.23108465799020134,-0.577671052642575,-0.3592710856504918,-0.34135516009671657,-0.31321114087231433,-0.18671867145673834,-0.1031143781616801,-0.0026172626492200674,-0.374999683129163,-0.22236254021631222,0.010160369165575216,-0.02080155868851339,-0.12848868282480294,-0.3033066020381884,-0.2310632030749212,-0.22491248628354774,-0.22547633375165638,3
6.15,2.0,2.425,1.8,7.55,22.525,7.925,7.7,364.0,127.0,146.0,129.0,500.0,1473.0,533.0,494.0,15.0,11.0,17.0,16.0,18.0,20.0,18.0,16.0,-0.17618565960272675,-0.20738197507603964,-0.2593251726615577,0.0355401064775684,-0.4657011815583046,-0.2059484818522696,-0.2116382852698959,-0.04645563100226823,-0.2569195471547772,-0.15695383842555422,-0.3778747258356835,-0.18847403352770326,-0.5928726076323088,-0.20147915664284533,-0.15816873579427218,-0.033737445146761066,-0.4301616581441272,-0.03416039374377409,-0.5926731555935751,-0.33764822228986685,-0.42144469107163984,-0.3227210365124677,-0.25330836113611505,0.009034509338043667,-0.6145547091435163,-0.34159873789027106,-0.1291287203915851,0.16732284664165548,-0.33121775568298556,-0.27302609732360344,-0.20728680453272577,-0.1825872220262648,3
6.425,2.525,2.4,2.375,9.525,21.7,7.475,10.275,430.0,148.0,152.0,171.0,566.0,1361.0,486.0,750.0,12.0,15.0,12.0,16.0,16.0,20.0,18.0,21.0,-0.18230130024117341,-0.16615493454399508,-0.18312717615356436,-0.14347530442990636,-0.42978400594447286,-0.029106543229264797,-0.1559509013962761,-0.22476474811457528,-0.39831391795842624,0.008320607401484144,-0.323002720549936,-0.31056142967737826,-0.64296206626455,-0.04313061723716001,0.025270254603816492,-0.17178507717695318,-0.46772477237030813,-0.3709896009433914,-0.04951660295514355,-0.06829647445952292,-0.5686336588944023,-0.43474371910244936,-0.2025006125388043,-0.029224521374025973,-0.5524436944813541,-0.4281483123889062,-0.3767257383649296,-0.31437745381517734,-0.7043543828780345,-0.38380585411123397,-0.37895143139125415,-0.20157917600320652,3
7.425,2.575,2.025,3.1,9.65,25.9,7.375,8.5,444.0,144.0,124.0,204.0,589.0,1497.0,468.0,583.0,14.0,12.0,10.0,12.0,14.0,16.0,14.0,17.0,-0.28064187364667653,-0.19067656015067402,-0.2717759677541288,0.17144267811283911,-0.2113383762206094,-0.4986009127553849,-0.1990033209435882,-0.3405832227874664,-0.10026044076660852,-0.0713178204259625,-0.24457222713710192,-0.23163481908775327,-0.49246797729826225,-0.19599730264803425,-0.3428306906642099,-0.3125037533938156,-0.3292729984246564,-0.2660500223922023,0.0766460073462246,-0.11142300009085007,-0.18407787984230137,-0.13243419247945076,-0.06853854271895313,-0.2539023140698188,-0.40545825931261253,-0.35716398766638713,-0.057332813893215984,-0.14579368516102495,-0.6236683683299615,-0.32164388490014095,-0.18939302398802402,-0.14217994234794307,3
5.95,2.5,2.575,2.15,6.85,22.8,6.725,6.45,328.0,135.0,145.0,150.0,371.0,1479.0,424.0,421.0,14.0,15.0,12.0,20.0,12.0,20.0,17.0,17.0,-0.08995488297851958,-0.2699123361820882,0.03768391006320295,-0.30614529167367677,-0.17921114477340694,-0.19918587682546804,0.08132532084490143,-0.028460777741901384,-0.10500548528850566,-0.0717563154690246,-0.12815089169291422,-0.1879991814356692,-0.6275101684568604,-0.1459162342002396,-0.038078317399651646,0.047916555559898884,-0.15722534133153512,-0.28877265344109687,-0.09694688378832123,-0.0858444467880615,-0.3064433992722673,0.09620175101072737,0.08099816295904559,-0.14841784683639056,-0.3627222111370543,-0.16693594718420715,-0.16816214390463094,-0.14822228510741403,-0.5046057064389202,-0.612102992053317,-0.37763817525246063,-0.3554106114090845,3
6.825,2.575,2.45,3.175,10.775,27.4,8.4,5.5,396.0,146.0,163.0,196.0,746.0,1691.0,567.0,340.0,13.0,13.0,13.0,13.0,19.0,19.0,20.0,16.0,-0.0010622109420899445,-0.14271452000770113,0.0332160747127517,-0.1155086024253135,-0.1704022190608156,0.12041822130171671,-0.25654454380385877,-0.30141017189963876,-0.36887624731637353,-0.024487913736790354,0.12113206821952939,-0.19898057245900724,-0.5315472014876753,-0.029066275764560064,0.3180561257223193,0.10972713418291606,-0.660726575219459,-0.3521471309755282,-0.47503972427765967,-0.38776114902958875,-0.30513763701391305,-0.1314807839566878,-0.11057393660198012,-0.13472275180743462,-0.5612895160201156,-0.1386499678326561,0.18388181018380198,0.07344756647191036,-0.28386921589158987,-0.38673825730306827,-0.217643740810683,-0.24165439445550807,3
8.4,2.825,2.225,3.1,10.025,32.675,10.0,8.075,525.0,170.0,129.0,172.0,670.0,2309.0,707.0,491.0,14.0,15.0,13.0,13.0,21.0,22.0,22.0,15.0,0.09856678700222486,0.24649212851894078,-0.2893987846647034,0.134644876055041,-0.20180319578671657,-0.22309006548000176,-0.19262635017898178,-0.13980253431533948,-0.12562617831608072,-0.12711050829324283,0.025681070623316156,-0.06067643397205013,-0.17280754038921048,-0.10650426109895511,-0.17461589609891465,0.06426412110799831,-0.5953064580637346,-0.4722513323858802,-0.3406084292599024,-0.31323114833978843,-0.7139361926565888,-0.46620513770324123,-0.3095203519209973,-0.1969668055290611,-0.7601426120687864,-0.49420380951895415,-0.44139835975120345,-0.3541222256503162,-0.3619909603987278,-0.3394165664318471,-0.32012069005648014,-0.44528704082875753,3
7.875,2.75,2.525,3.45,7.575,31.875,8.5,6.875,480.0,156.0,133.0,200.0,501.0,2127.0,576.0,409.0,13.0,14.0,12.0,20.0,17.0,20.0,19.0,15.0,-0.27469450010705926,0.04377082855264325,-0.07424425953204,-0.2573321472940399,-0.1517690279861038,0.13271374990208107,0.17007968019240677,-0.00647251537530526,-0.1357771722385827,0.024923771327386605,0.13020113154789448,-0.30892324690230716,-0.27610204774950653,-0.15754283896038274,0.006377127652671664,-0.2792385003207965,-0.38585263257017494,0.008469618366730328,-0.0352066952542917,-0.3737922347934539,-0.6099559224737345,-0.34238943423739343,-0.18145162378289492,-0.2611798826223833,-0.5293311820999225,-0.38326592093410466,-0.3307984622180998,-0.5045780587868299,-0.4086200763169482,-0.46340336276621685,-0.321138883891351,-0.32791567029081564,3
7.925,3.275,2.4,3.375,7.525,30.675,6.825,5.9,447.0,190.0,145.0,194.0,496.0,2001.0,426.0,350.0,15.0,13.0,15.0,17.0,16.0,19.0,17.0,18.0,-0.03865842072301422,0.05515917652440658,0.04523337208474237,-0.40566708419138137,-0.04199949556486699,0.06346264635027657,0.053988298634932465,-0.2421237057479813,-0.062363255929378775,-0.30333551224030364,0.10231783442642525,-0.38345596150792877,-0.20585285332661615,-0.3511659128917515,-0.15035784362835622,-0.19802160348128744,-0.34641264644981123,-0.35012645451080043,-0.21897719599391316,-0.21488742572819508,-0.4130116093048967,-0.23515267249262026,-0.13797362372255595,-0.24288434992982208,-0.45300836812097595,-0.4060671272131868,-0.441375505223262,-0.36222979070501643,-0.2967807511314269,-0.1035877225084395,-0.09182014380434243,-0.24345450015934986,3
8.325,2.875,2.25,2.65,10.75,27.725,8.6,7.2,495.0,175.0,127.0,145.0,722.0,1876.0,558.0,447.0,15.0,15.0,17.0,14.0,22.0,15.0,22.0,18.0,-0.2488217962916414,-0.34293954318883807,-0.19835651651704586,-0.32755779733475965,-0.029375044488535323,-0.33900793376162247,0.05360448586860982,-0.09423644062758854,-0.2735905997105506,-0.23195694379944992,-0.2550909441321144,-0.3378039065859388,-0.3645972579081244,-0.2605430460175828,-0.2368391355647784,-0.0562172763021496,-0.45546975641768456,-0.19253843468963355,-0.1629321220607095,-0.33356866979538286,-0.34862048424946357,-0.25885820892445477,-0.02688683010165519,-0.2613597349216305,-0.509906318079553,-0.451696338464112,-0.584791967279025,-0.2703563562412077,-0.4091954329935786,-0.18276680241115437,-0.09542455973747034,-0.1892868057182487,3
6.875,2.825,2.275,2.525,11.7,28.175,7.775,8.2,436.0,170.0,125.0,137.0,778.0,1800.0,444.0,492.0,20.0,18.0,12.0,13.0,18.0,17.0,15.0,19.0,-0.2872786800411364,0.02777067112197879,-0.02550461678506941,-0.3055336917879945,-0.32841893647170467,-0.17491718383023658,0.10905948122468093,0.16741811563808479,-0.05208347899343095,-0.12467248548829976,-0.13465336433541222,-0.1947293975533205,-0.0044142924107349,-0.379659273639719,0.07265720603713578,-0.33545127817799425,-0.6953688002608105,-0.52980724172097,-0.3229600169960887,-0.14911299740733341,-0.18512375247284077,-0.172762797856601,0.07899096810902502,-0.03648395911950278,-0.22768104196720415,-0.3300812148542681,-0.15906715107153221,-0.40556069979651843,-0.33789062698360217,-0.4754078729243257,-0.1815368907485965,-0.48536543153283984,3
8.675,2.775,2.825,3.625,9.65,37.125,12.4,8.975,630.0,170.0,160.0,204.0,694.0,2205.0,718.0,571.0,22.0,12.0,15.0,17.0,22.0,19.0,19.0,19.0,-0.35122229428623103,0.16462247626416684,-0.1113907419358208,-0.45464800251735943,-0.1791652335118062,-0.11084985280809082,0.08993682099301682,-0.10231899888701462,-0.1655669302385741,-0.2550945605238748,0.047644170041149195,-0.33572912395401067,-0.3073836432132291,-0.36943469795945466,-0.12131898954009522,-0.26158737478524446,-0.6588552602308403,-0.414247890220228,-0.4941578603243689,-0.2308884322704222,-0.29246380295447316,-0.3186515911478451,-0.3671966005630566,-0.131004451182929,-0.4160511609906889,-0.25933368885635505,-0.1854308029987082,-0.25140195585263325,-0.5180471628985228,-0.23574335622058612,-0.05802736867209835,-0.012659622333537585,3
9.825,2.8,2.4,2.8,10.2,26.15,7.6,8.775,652.0,173.0,135.0,178.0,696.0,1851.0,530.0,610.0,18.0,12.0,11.0,14.0,19.0,23.0,19.0,22.0,-0.31611870792231395,-0.053284807100275694,-0.1343561512386221,-0.3102362108238364,-0.2764149608806581,-0.19876206752471573,-0.3319059434110946,-0.11583472807157896,-0.13422442817900296,-0.25654156556433755,-0.3179477984144184,-0.15417632743783033,-0.5172101402729288,-0.3393515463744824,-0.34583667126516543,-0.2876461992516418,-0.7680715093081785,-0.5237219453081924,-0.22847368001826054,-0.014487315387988444,-0.8959165945089076,-0.6176264706286956,-0.6414744895783073,-0.37481000257969127,-0.5560542941183713,-0.171851893615693,-0.4295993029450742,-0.1807298295752782,-0.6159627999924365,-0.03219587085791303,-0.24085187184775364,-0.261252185234546,3
7.35,4.425,2.675,3.25,14.1,30.45,8.95,7.175,471.0,263.0,136.0,191.0,989.0,2096.0,545.0,483.0,20.0,16.0,16.0,17.0,17.0,16.0,16.0,17.0,-0.07881497427326882,0.0003021278685129669,-0.007063860476683762,-0.06343693745619793,-0.3737250490772159,-0.15739697340038047,-0.24843835874645612,-0.2954861026397268,0.07168049308507117,-0.16084555349589794,0.02645867183889794,-0.24248264523394478,-0.24435888820083987,-0.1469187573897005,-0.15955734154242177,-0.054991946266556894,-0.8310820309320539,-0.5308064656835999,-0.3410155568611981,-0.23585141080277636,-0.5906225064756,0.005060610418985669,-0.14226711732508898,-0.19835017350456025,-0.37626770093577805,-0.05942854487168592,-0.3461545204146996,-0.2896606863370998,-0.6867283395570726,-0.6123719640516869,-0.44087062647459413,-0.37259656879573994,3
6.525,2.9,2.675,3.025,10.5,28.225,7.675,6.775,398.0,154.0,135.0,182.0,693.0,1783.0,443.0,440.0,15.0,13.0,11.0,14.0,22.0,21.0,12.0,16.0,-0.0877396133596345,-0.19359752130861294,0.06662916491389828,-0.1870623823491224,-0.2523114749541569,-0.11980995061427038,-0.31666965537176817,-0.3001943150282873,0.10393122080966358,-0.04525354283906272,-0.3970347613382697,-0.09614133788218349,-0.20753330285914012,0.08898091792441223,-0.010419405581631534,-0.09747795809920631,-0.7899157033988092,-0.619560339015207,-0.3086109411383553,-0.3167836661819359,-0.216660943117415,-0.4561830003367042,-0.002014315652592205,-0.5359196958534396,-0.07956019311712186,-0.24478166013583832,-0.05609464495389406,-0.35364864963053244,-0.5893386540341203,-0.1578823842492479,-0.2496529520143439,-0.29535653081462065,3
7.375,3.675,3.45,3.8,8.95,20.1,7.875,8.225,465.0,220.0,169.0,210.0,579.0,1273.0,510.0,580.0,17.0,15.0,10.0,14.0,17.0,13.0,14.0,20.0,-0.38306352385345244,-0.2662559740284198,-0.08572794997774982,-0.16425261144647166,-0.45763296821649213,-0.20009089930101925,-0.0627313738415498,-0.06809504688879921,0.009919951193537094,-0.28738223451465944,-0.06729873693070848,-0.36905994322400687,-0.17428303649174404,-0.22517974769322305,-0.11813624997430967,-0.14703304222015476,-0.8234324421872224,-0.5371833576198908,-0.18823997869890013,0.017271511864602525,-0.40526516378495414,-0.2419661419825339,-0.35323196835116955,-0.13157445708071305,-0.40836622920590415,-0.3681713563552609,-0.23172548650404345,-0.18632989250998086,-0.5232404321611431,-0.037892776803823115,-0.09735286915750424,-0.1684730015316951,3
7.75,3.575,2.65,3.45,8.775,22.075,6.65,7.9,512.0,240.0,157.0,221.0,553.0,1440.0,399.0,538.0,21.0,12.0,20.0,19.0,16.0,17.0,17.0,15.0,-0.3959135062000071,0.03899308341234015,-0.13789478474117103,0.0008623933708104575,-0.3242887053179154,0.11691312253506447,-0.13312623585127423,0.03128275594343268,-0.3044847044954565,-0.10293410654956242,-0.040793045439678155,-0.22274777855839048,-0.3286606581613447,-0.20090262543462123,-0.07487486418537337,-0.14880608039088192,-0.6005859212181873,-0.40310584747271244,-0.046853072925134735,-0.20276016961169868,-0.5453515871359572,-0.3663009737082036,0.026332378937238422,-0.05086245440526274,-0.4101991054428017,-0.429578540485286,-0.28865420424972954,-0.3240805285453745,-0.44788620466590323,-0.2910734147604839,-0.1295040897481553,-0.36093527471257153,3
6.75,2.9,1.975,3.1,8.6,20.8,6.3,9.075,467.0,200.0,110.0,179.0,547.0,1274.0,363.0,581.0,20.0,17.0,12.0,16.0,19.0,16.0,10.0,18.0,-0.19023145494942412,0.011364895994826204,-0.22238018285556088,-0.14341612371296006,-0.504114276184903,-0.14086682911861992,0.031179891393273266,0.09058707413397428,-0.2433525991846837,-0.10672668465098877,-0.45394488380618025,-0.23163274950900342,-0.36496963992598774,-0.39248845933459187,-0.3500963218952945,-0.16950413417749627,-0.5574014529074971,-0.44382633406556116,-0.18435407430836803,-0.17959512461738553,-0.3107056932229944,-0.1786868187043998,-0.4030843362117661,-0.22870732410658437,-0.29475396462084985,-0.26784769881193665,-0.3618088405084904,-0.3199181161810056,-0.1854600273659164,0.06339702519327745,-0.262038088814804,-0.2561178375381599,3
10.85,3.25,1.825,3.2,10.85,27.5,10.5,10.2,686.0,206.0,106.0,213.0,678.0,1576.0,726.0,686.0,15.0,15.0,15.0,15.0,19.0,15.0,19.0,19.0,-0.6330231710969749,-0.6392486464618778,-0.6652691431007905,-0.561519238801127,-0.04412789687823596,-0.07818438827138077,0.33978826730717987,-0.3062259048326781,-0.46974966610393865,-0.3573963873405816,-0.2598551909715651,-0.16687548118801818,-0.45311372514210996,-0.23552300512978536,-0.10665177577722174,-0.11466252775421637,-0.41304751301762066,-0.19505967395185614,-0.2594415230240504,-0.16063470065567004,-0.08790569837837932,-0.129835103232094,-0.0128531714695697,0.00038178986593262736,-0.5049111310587989,-0.15643170991902558,-0.046032291620378044,-0.21509588229645138,-0.40133399822488536,-0.20090939686366832,-0.3042118120037569,-0.3427178420324318,3
8.975,2.45,2.15,2.85,7.075,24.9,7.35,8.975,458.0,155.0,127.0,162.0,421.0,1590.0,482.0,526.0,12.0,18.0,18.0,14.0,16.0,22.0,13.0,16.0,0.1008531825428264,-0.3718872278918512,-0.059712200828515076,-0.216962346282529,-0.2357130344301242,-0.014902628343281054,-0.13358433432487088,-0.18107695545559158,-0.5723752409411693,-0.29615735249816777,-0.29177939947662024,-0.24799220603420646,-0.14694190135215635,-0.03601236616922587,-0.02235069558209687,0.028788720339799817,-0.20536333666448736,-0.14223323747671784,-0.08139081153593371,-0.09103077365587857,-0.2898743482112444,0.10011571665435019,-0.19652088377424692,-0.09326409442505386,-0.5756695510304496,-0.5162101573076295,-0.3214751694158843,-0.22795118254873306,-0.40625013963982887,-0.26692405112700457,-0.3168788654512005,-0.09911801198812116,3
7.675,2.175,2.075,3.45,7.875,23.85,7.55,7.725,463.0,141.0,140.0,210.0,519.0,1544.0,444.0,499.0,12.0,18.0,14.0,16.0,16.0,18.0,17.0,16.0,-0.1684160559124935,-0.1543503212059867,-0.2815938092402173,-0.24641604509299042,-0.32758037726624,-0.21222862361522304,-0.28813753102563294,-0.22108877475148986,-0.942982684260756,-0.7847840541807262,-0.6059039246713557,-0.36591580908872723,-0.5422851489122605,-0.09592535219869618,-0.11949174983276514,-0.15300910372180307,-0.4485290709933659,-0.4101080623415076,-0.24655125258740687,-0.3349849624691768,-0.3922776593869957,-0.010910510171366114,-0.17618797548536475,-0.416411315732714,-0.3624567090855929,-0.31084455646598924,-0.2950585287946756,-0.29565045374981613,-0.39567375059360527,-0.019061443163754355,-0.0001203609648732083,-0.10079979104477355,3
9.025,2.45,2.525,4.025,7.95,21.7,9.45,7.825,586.0,140.0,134.0,225.0,522.0,1440.0,594.0,534.0,19.0,11.0,12.0,16.0,18.0,18.0,15.0,16.0,-0.2164620059382093,-0.15490470260467704,0.07172164922165429,-0.2897991370736,-0.1707277834929648,0.04567293478494735,-0.1588269910021001,-0.5115810649491453,-0.0017017945897284744,-0.24231095683789178,0.03069470837390376,-0.269771990244936,-0.3394781415925891,-0.28468275743626287,-0.11355747295944503,-0.4322502228424945,-0.37035709118680443,-0.2895422777772281,-0.29322560199406755,-0.25044604162134065,-0.3624416524040064,-0.10510740728383704,-0.2767798604724968,-0.4237895404698663,-0.3391770569139742,-0.2898004607051526,-0.2582320986877024,-0.2583420781508226,-0.3453208752468046,-0.02973867085732082,-0.11996888191680362,-0.2694985289508692,3
6.8,2.675,2.325,3.55,8.925,22.65,9.025,8.25,440.0,168.0,145.0,224.0,566.0,1424.0,561.0,520.0,16.0,15.0,13.0,17.0,21.0,17.0,19.0,14.0,-0.11737874836587785,-0.06459275796435088,-0.10253896530793678,-0.3870963597940595,-0.2962051894200536,-0.16818229879783458,-0.3095824864058317,-0.2915684890658045,-0.22766030608243773,-0.08589183907997446,-0.2454566258965341,-0.32440266526540107,-0.25688247093916533,0.009084343912518491,-0.09051884462035688,-0.4759836989089261,-0.2826334074634717,-0.2330389456720822,-0.1799556445109595,-0.1684950519004783,-0.1304922546653295,-0.24425078052163304,0.13264729785257387,-0.2102561791329771,-0.15335838657215858,-0.38691084730825526,0.04905294243126249,-0.40342890676516036,-0.5469506242053531,-0.3723775173039137,-0.08984510537113809,-0.14280827253970363,3
7.3,2.85,2.075,3.3,7.875,29.625,7.5,7.225,513.0,193.0,125.0,194.0,477.0,1888.0,479.0,437.0,19.0,16.0,11.0,15.0,14.0,20.0,19.0,17.0,-0.5011051425997657,-0.2461094094261732,-0.28572863781828467,-0.24673738750904256,-0.4901549035454797,-0.008209265876943553,-0.13834766390402378,-0.036206581912516675,-0.1637243686819478,0.11154118824626896,-0.22500715842560073,-0.3487157951077652,-0.13245427352166503,0.21984603168379324,-0.3259655374820116,-0.27663797531682366,-0.2396086474427518,-0.2897313278749973,0.007917624150618767,-0.05866793211464496,-0.29841310285130956,-0.2940552979994989,-0.1502317933478049,-0.09392786216872671,-0.29343313475136334,-0.1738966864959843,0.22261260058646642,0.1764973605945824,-0.45998965536900044,-0.38499401165038216,-0.2266994054661451,-0.5400877090471706,3
8.025,1.7,1.75,2.425,11.55,26.25,8.375,8.7,488.0,84.0,92.0,166.0,742.0,1512.0,566.0,526.0,13.0,11.0,9.0,13.0,19.0,17.0,16.0,18.0,-0.2895037625735828,-0.2546144393666911,-0.04512241618803562,0.0021653006442110302,0.18876386177530244,0.1751436694187008,-0.23449752140927382,0.053826611539646574,0.04847229195154754,-0.1981379110765224,-0.10260249048154367,0.03819253295964431,-0.3475016905932892,-0.007386628643524963,-0.2435364691784393,-0.24894150280592917,-0.4945571368132258,-0.13091263324773803,-0.21790915426034307,-0.450711140494155,-0.14857299176355182,-0.4085112014452964,-0.15472498578612667,-0.3223773152312312,-0.546960164760995,-0.4992841238359042,-0.20841682762681432,-0.3466068397552861,-0.3111964850340374,-0.2876803886702862,-0.1498370034511824,-0.19586840707643205,3
7.425,4.05,2.8,3.25,12.5,25.95,7.375,8.125,495.0,263.0,148.0,209.0,822.0,1679.0,497.0,538.0,16.0,16.0,12.0,12.0,20.0,16.0,17.0,18.0,-0.3490797662428549,0.04450896752411423,0.25259091424048086,-0.1971235053700987,-0.3156394151184806,0.13249019086679167,-0.11119929484603053,-0.2781679030389872,-0.21816008499160805,-0.21513097759457567,-0.06295654671371696,-0.11094992868709858,-0.3858213453522596,0.0067775746386808215,-0.15520243852818602,-0.1390064633875486,-0.7342278652619199,-0.7409803521379347,-0.532400587155934,-0.43467102843832645,-0.3152786674880841,-0.12927159370836191,-0.2740561178562847,-0.019737007293776063,-0.5712108928526898,-0.43261391296398893,-0.24422161232627201,-0.08208850630235554,-0.40830879628099803,-0.0749949829693787,0.07713668420283462,-0.1487977684159206,3
7.375,4.05,2.375,3.125,9.625,25.925,7.275,7.625,440.0,235.0,114.0,168.0,666.0,1609.0,456.0,438.0,15.0,15.0,13.0,11.0,17.0,16.0,18.0,15.0,-0.16533366666865626,0.1918835526530979,0.18122089813473086,-0.2225633898365207,-0.2131254355254273,0.08203828369632864,-0.18659984445347563,-0.3266913362650674,-0.03249176079134133,-0.24668267830968882,-0.03984234721556577,-0.28769219518941774,-0.06183279235319682,-0.038729394390804,-0.08224111675803361,-0.26585971506603717,-0.9415272525592638,-0.7141621851100005,-0.4403264828762877,-0.08720433517019724,-0.22764662901940463,-0.20350202264370457,0.00554404532326771,-0.03875979899333582,-0.5875467016396567,-0.46497452976140385,-0.24883303456763642,-0.3443376049355786,-0.2731219099991072,-0.2780965450307005,-0.04249711113618351,-0.24598806539650142,3
8.425,3.15,2.0,2.35,10.525,34.725,7.075,7.425,526.0,183.0,100.0,131.0,702.0,2267.0,439.0,418.0,14.0,16.0,8.0,12.0,17.0,19.0,17.0,19.0,-0.42919159652196387,-0.45791799937176725,-0.1378909917851817,-0.30150949713722897,-0.1287078443068837,0.02873171100953991,-0.11596631172966762,0.09198416516035292,0.06367149006072248,-0.04592176283618251,-0.12679389006940936,-0.09386246699243807,-0.09116080029226357,0.11926152316513565,-0.18098839438591405,-0.14984877381487327,-0.43919417786782433,0.00010421521551527113,-0.08447934132318247,-0.17698351942395,-0.5242887537933429,-0.19217884303072696,-0.23230981992479927,-0.2180640573181562,-0.4013571397081125,-0.23298719352128425,-0.001963659767772656,0.1325993601952115,-0.0012535094428627947,-0.2749558500454409,-0.032354918329116515,-0.42074447744456983,3
7.925,3.45,2.525,3.3,11.85,36.1,7.725,9.125,532.0,217.0,158.0,217.0,889.0,2542.0,530.0,511.0,18.0,16.0,18.0,18.0,21.0,23.0,21.0,18.0,-0.4622375543861684,-0.006284970101994402,0.06223605818599532,-0.26290915425445965,-0.302056996994192,0.08926951113452548,-0.03645431785822803,-0.3556955617905989,-0.390271595315435,-0.24344082543213855,-0.040165573629192805,-0.4357267233040615,-0.4688027878453378,-0.13296541156773933,0.05303055528823474,-0.1782939857743438,-0.9773523033498028,-0.7409283167877652,-0.3638153852543843,-0.08119053044185452,-0.5878437430923005,-0.17173535958303698,-0.08257912949076357,-0.1278948741208422,-0.6080791601166965,-0.4042349516881861,-0.30022997589998335,0.029482072260417658,-0.3082071734245277,-0.2699683414059359,-0.1906793988880339,-0.2766295616837317,3
8.125,3.375,2.25,3.125,9.725,33.075,7.45,6.875,545.0,204.0,143.0,207.0,612.0,2067.0,478.0,387.0,19.0,17.0,17.0,15.0,21.0,19.0,17.0,12.0,-0.38664516319436193,-0.20563996752395144,-0.07572735382806589,-0.4029765881670961,-0.2584014774725572,0.1154059638897763,0.15952991328880628,-0.17169760099105633,-0.6015817136565929,-0.24180985328369392,-0.32239069189851455,-0.24949916188847815,-0.6388972305327276,-0.21958822879576348,-0.4295359459474828,-0.4468973597227741,-0.35115934000175847,0.02875420626056142,-0.22494925863556214,-0.25172903632808835,-0.5733099875248828,-0.3552764080440979,-0.37163165449063335,-0.30108948560614535,-0.4098033094295103,-0.3426765995154652,-0.10849933690827326,-0.3542145535949052,-0.40937501922283537,-0.33938786856885883,-0.4358365727711772,-0.43502410777174966,3
7.5,3.2,1.875,2.6,8.3,30.275,8.275,8.475,510.0,193.0,104.0,163.0,559.0,1931.0,532.0,555.0,18.0,17.0,11.0,11.0,18.0,16.0,18.0,20.0,-0.3116016160974903,-0.0350019518539458,0.06324835018663018,-0.2692669968192784,-0.18184795935375095,-0.029533840974618916,0.1277092037384563,-0.08416113654967641,-0.06489238329650523,0.09586888464153831,-0.1037875367639044,0.08188772426787232,-0.25723295764743204,0.38652514227252305,0.03127610509015372,-0.13201580379724343,-0.34308006841208266,-0.18651226453929973,-0.311193442521242,0.0791927641927575,-0.4498339889411828,-0.11262396939065464,-0.3319751451151835,-0.4141986348129951,-0.5923227393710688,-0.3183898232617596,-0.5630479310027102,-0.36498476933361607,-0.35759882634388784,-0.3304341283371811,-0.19760027150411025,-0.5452148166525399,3
9.425,3.45,2.7,3.35,8.625,27.55,8.525,7.525,633.0,198.0,126.0,204.0,578.0,1756.0,501.0,469.0,18.0,12.0,8.0,14.0,21.0,17.0,17.0,17.0,-0.6238703443110206,-0.6238878733247812,-0.12575412490854007,-0.2051247329659554,-0.21470809008861674,-0.5489517878486443,-0.12881183004931462,-0.3732043236697488,0.13082283048762763,-0.2514550168090553,-0.20781361004310586,-0.2882067371661239,-0.24556567262022178,-0.03360621359634967,-0.2834877716176012,-0.3232583994411204,-0.25297992857709045,-0.07246577620001256,-0.01841816386386391,-0.29884578444691134,-0.34379549750672395,0.0679137054727579,-0.11809684315673596,-0.2475586309660573,-0.2800915556820142,-0.0036783268279013907,-0.4117145139363781,-0.1329755288448421,-0.49199743586972444,-0.4524604908926883,-0.05414906045946651,-0.20605829106175852,3
10.05,3.4,2.65,3.825,9.025,29.625,12.35,7.3,625.0,221.0,161.0,217.0,518.0,1811.0,773.0,520.0,15.0,12.0,14.0,14.0,13.0,20.0,20.0,14.0,-0.2624196699712117,-0.1767585850387285,-0.23380616091304393,-0.42876046176803395,-0.3008046699868699,0.09821585545101708,-0.08229000827160518,-0.42444421478817146,-0.3615725686855185,0.025915217090715637,-0.03675864265407663,-0.16802986186734872,-0.31291027671124483,-0.13409255284797547,-0.024341006770220913,-0.17861063344355924,-0.356593160630911,-0.5427398220825561,-0.27250985894188895,-0.3759002933000124,-0.32378394535223115,-0.03454487150058232,0.025310273647183672,-0.2531268090115426,-0.5251329507738868,-0.15919611453972393,-0.20484837166938352,-0.31401909954477225,-0.5778559079580973,-0.29125545144974213,-0.35362774865569097,-0.33633931414693063,3
7.175,3.275,2.525,3.75,10.45,27.6,8.95,6.5,397.0,221.0,146.0,240.0,699.0,1708.0,601.0,424.0,12.0,14.0,14.0,17.0,19.0,17.0,21.0,15.0,-0.17364431791192655,-0.08558019028922169,-0.22069964803414333,-0.3748734972043289,-0.49732171872744213,-0.465753878722467,-0.25954781992693565,-0.42545324789412425,-0.33056910822919516,-0.2105666456049037,0.01102140079362091,-0.12398932519074975,-0.48275763416765466,-0.18972251013863928,0.11746472233035925,0.012213132622791306,-0.43249269762588716,-0.29553350485910623,-0.22042215782823735,-0.45594623452765737,-0.37230228221556183,-0.16769860702274592,-0.04446931800720985,-0.23267403844109322,-0.6660720613627688,-0.37690205224586626,-0.14580575434522441,-0.19929513901049128,-0.3367150074493289,-0.26299525180575645,-0.41209757099753447,0.02212337945424902,3
7.375,2.9,1.925,2.325,7.025,22.325,8.25,10.725,438.0,164.0,91.0,132.0,413.0,1414.0,554.0,675.0,16.0,14.0,10.0,11.0,14.0,18.0,16.0,18.0,-0.23067781497999515,-0.2640291491584103,-0.26724923197558353,-0.13140730420431537,-0.1437421494248656,-0.24634815367401203,-0.10911467526265788,-0.22967172741210756,0.09750394783994173,-0.3106612339155756,-0.07530996153279786,-0.3031741386493173,-0.2398035212048256,-0.17402338307105847,0.028287439802448633,-0.12085405199296896,-0.14039057255267093,0.07406012132775884,-0.17558527364927295,-0.2558547876284769,-0.35308389190460615,-0.17394613095885061,0.12923951870205186,-0.03678681084855575,-0.6604957786000695,-0.6175194027358596,-0.3966409297856401,-0.32918033457056806,-0.5078850620120432,-0.33910784315059034,-0.3340354146686814,-0.47035134493314396,3
7.025,3.075,2.475,3.15,9.425,26.075,10.7,10.1,412.0,205.0,156.0,196.0,678.0,1826.0,765.0,646.0,15.0,18.0,18.0,17.0,20.0,18.0,20.0,18.0,-0.11068904898129298,-0.2278419020548555,-0.1376400969591203,-0.0515986244616137,-0.38051394172345854,-0.36551968502868154,-0.09934545857861522,-0.3112293296406537,-0.36531485804124797,-0.3081055892041879,-0.311755564458157,-0.4057791706325042,-0.4063371098952789,-0.3936182298594988,0.26639149683932645,0.07686146553822558,-0.5296000929296322,0.11032677476974358,0.3392716467445133,-0.0993758734969315,-0.4199979754135294,-0.030256870457421942,0.166926067573577,0.0413968443182438,-0.8202165989367047,-0.4709964963084828,-0.3007776080371602,-0.17317275151916733,-0.45818714192506443,-0.3031999218654514,-0.33407908987196583,-0.33705510171232045,3
8.9,3.0,2.225,3.45,8.0,23.15,7.0,9.175,513.0,171.0,132.0,201.0,488.0,1648.0,432.0,562.0,13.0,10.0,10.0,15.0,17.0,22.0,17.0,19.0,-0.05635861936474266,-0.038247573846732205,-0.27737410831790127,-0.23492384798738977,-0.29843608085202067,-0.4413919268847092,-0.3187171660965192,-0.22297457798879752,-0.48721501123638383,-0.5375185408219488,-0.359863340389314,-0.4321764895630704,-0.45555049393910485,-0.5334105826312494,-0.2932056719825671,-0.2813132907819255,-0.21831449838213426,-0.16033954025815483,-0.1373398373982027,-0.06534951823843123,-0.4994081637628808,-0.23396438743322528,0.1088717331507258,-0.14997563627753477,-0.5682493197418872,-0.2937208603323821,-0.1555933736664911,-0.11246193795153393,-0.3252089863915998,-0.5806811675717369,-0.30761048537112334,-0.30151901266480813,3
9.125,2.975,1.675,2.35,10.75,28.525,7.95,8.925,636.0,191.0,94.0,134.0,657.0,1872.0,503.0,585.0,24.0,18.0,10.0,11.0,18.0,21.0,18.0,16.0,-0.5985779042432503,-0.31555622003827977,-0.3951193590845627,-0.320339872186921,-0.432837568022017,-0.2003169087198875,-0.27425933794201657,-0.3686005914957353,-0.5454790315400077,-0.5521617288600239,-0.34984163890184844,-0.316183692479023,-0.18399142154848253,-0.46053428022386317,-0.15222370512231986,-0.195298997437698,-0.5913789025855811,-0.5048444980245219,-0.4601524515066578,-0.5203865964696204,-0.562674208318639,-0.28467031001701554,0.07875293151601068,-0.0056737363965604455,-0.43552801166956195,-0.2788135328709856,-0.16341737498869846,-0.12209157694527988,-0.3700024223355501,-0.12514225865366924,-0.06812945413311021,-0.25749321186618784,3
10.55,4.1,2.55,3.025,12.975,28.625,9.825,7.65,735.0,269.0,142.0,152.0,907.0,1931.0,631.0,424.0,21.0,16.0,17.0,12.0,21.0,15.0,21.0,13.0,-0.47315496899905307,-0.3199135700988102,-0.021301755231664988,-0.08831343280693045,-0.43301299536507054,-0.4225198613609779,-0.10568033558416777,-0.14826046207732205,-0.24081345314096353,-0.34958311347745774,-0.1735276390834483,-0.1357416935473717,0.004805049527018911,-0.15338112118331473,-0.32615641390809363,0.04899801875281754,-0.7038654535613612,-0.3833731431959157,-0.1884704606221702,-0.3313541924002284,-0.5052094202052869,-0.17062836338759685,-0.14858256790151417,-0.2408948884064708,-0.31052198124292024,-0.24596745698654338,-0.18472449628969254,-0.17698897528654928,-0.35150382199564884,-0.16338997804465086,0.20019718690658966,0.31232034260723096,3
7.875,3.975,2.675,2.975,10.9,28.125,8.2,7.95,536.0,255.0,163.0,181.0,647.0,1735.0,594.0,432.0,22.0,18.0,17.0,15.0,13.0,17.0,18.0,14.0,-0.2858830460640302,-0.13458413327148208,-0.2365971082092762,-0.4607116241002767,-0.7511292249420768,-0.6918133176021394,-0.5932273956752213,-0.29349895010263427,-0.5489783777221124,-0.4940604984467486,-0.2824309459806083,-0.21991194143104542,-0.39822802853147016,-0.1753260546329107,-0.025677732258503252,-0.04708788491802881,-0.42464786314028485,-0.21547452646906579,-0.18816304260441713,-0.30422709973196393,-0.5594582660976855,-0.2273551562752306,-0.08964853276105775,-0.0606403809832559,-0.8558425321947216,-0.5024935990241799,-0.43796790334543756,-0.33646740519533946,-0.1825098326373042,-0.3374946538911562,-0.2937531190165969,-0.17615867046213665,3
7.85,2.825,2.45,2.75,9.85,27.7,7.7,7.525,544.0,158.0,142.0,158.0,664.0,1799.0,462.0,473.0,20.0,15.0,13.0,13.0,21.0,20.0,16.0,16.0,-0.45420696238965125,-0.28208553326765506,-0.20073743586048998,-0.3088219860158554,-0.19141357236188,-0.06457770690077999,0.029439638720746314,0.048440906467987765,-0.3806123994705752,-0.4302478906708291,-0.11138053594857471,-0.09905404700020522,-0.37711315775422816,-0.2394135035510053,0.10438895669133484,0.17468279021625618,-0.49371609935180266,-0.21883263228941155,-0.14644747662756383,-0.2193183425982489,-0.4858048635781189,-0.12375485866808947,-0.12935621547834636,-0.29347580698387143,-0.21848559823647629,-0.36865739022001426,-0.0748058889766588,-0.25173851743109693,-0.2900786290268572,-0.33648602955913665,-0.1006391676731028,-0.37644192712890434,3
8.7,2.8,2.25,3.15,7.75,31.625,9.875,7.575,599.0,179.0,140.0,185.0,569.0,2126.0,645.0,495.0,20.0,17.0,15.0,17.0,16.0,18.0,19.0,18.0,-0.47098409567786503,-0.05000016859423546,-0.22255618399987154,-0.14942919584643027,-0.26770985170236516,-0.0379710681214984,0.03165736884312964,-0.1175933584555651,-0.4556823843256153,-0.3642806468511995,-0.20983429849727522,0.038865212073843254,-0.4415931737914314,-0.4785065481252872,-0.16428007678213583,-0.17020590642046296,-0.6709385915303039,-0.28365332453499836,-0.380309828136397,-0.5024217231608885,-0.6442556065442743,-0.4194742290240435,-0.365075236552753,-0.4368354539892022,-0.7395986227525008,-0.6548666632052452,-0.39298138299187774,-0.3488036828007985,-0.384155062937663,-0.4147444044320932,0.0767236302790149,-0.19984895272582096,3
8.55,2.3,2.325,2.45,6.7,26.5,8.6,6.3,573.0,149.0,132.0,133.0,437.0,1656.0,547.0,400.0,16.0,16.0,15.0,10.0,16.0,20.0,16.0,17.0,-0.3570862099889803,0.07401824189200518,-0.342468028937193,-0.3391934735515974,-0.3373211190086254,-0.04135456068846058,-0.14851865129499028,0.12318377469529875,-0.4708082964930059,-0.2648106227442166,-0.4583439627443672,-0.36494183518676787,-0.013640718183565449,-0.4656935358930551,-0.16031738508379853,-0.19130162843941442,-0.21211392155706613,-0.16810612512606646,-0.23610239644504685,-0.22987826722026272,-0.14680636246115392,0.11403020718768705,-0.16789126762590045,-0.14254785484761737,-0.3452934310285881,-0.15320813796222243,-0.2316745561294019,-0.09571745363338288,-0.2842010686132133,-0.19839980480335437,-0.044466448408125775,-0.24937210685990727,3
10.15,3.4,2.1,2.6,7.225,31.2,8.75,7.775,665.0,219.0,113.0,135.0,440.0,1965.0,519.0,501.0,18.0,18.0,10.0,13.0,12.0,17.0,15.0,18.0,-0.23579029144833275,-0.2615887097911987,-0.03562135525078124,-0.20653544010245048,-0.2223053557675477,-0.11773995859418053,0.14536146679801037,-0.2593217310182115,0.04774789027806711,-0.21809418258634547,0.17128501410361527,-0.5024641834355722,0.07938377419010463,-0.20567250033703452,-0.00810853912547123,-0.3970035019611559,-0.23555235837252625,-0.24616493131684422,-0.232396568562996,-0.21868701262753842,-0.2589607943585256,-0.19055904370074586,-0.16336485755639787,-0.3690993435654689,-0.3126718312137402,-0.19711453282354183,-0.3020979547966356,-0.4745962800431822,-0.3433315038764093,-0.24480703256418715,-0.26877511425040973,-0.4085852871678821,3
8.875,4.45,2.175,3.0,8.675,22.525,7.375,8.275,547.0,269.0,136.0,183.0,528.0,1264.0,461.0,528.0,17.0,16.0,13.0,19.0,17.0,20.0,22.0,18.0,-0.2303005237138143,-0.09193392164296206,-0.01084262727741739,-0.15291434573247797,-0.2946356665530113,-0.08971504445280444,0.0916873144310311,-0.04515058651752354,-0.2326745090614503,-0.0904202425504596,-0.1953863096522047,-0.4124626023791704,-0.2749524039625557,-0.06458225912259027,-0.27777000722835393,-0.5226918832856248,-0.36970595535635137,-0.15431428032640102,-0.24687029348061146,-0.30004193196075263,-0.11453776241208166,-0.5502915028783569,-0.20035353853669455,-0.4150623746178149,-0.28042602453496324,0.07940480318340822,-0.22368127620103537,-0.4062226500236986,-0.41632287800364126,-0.29158276990864657,-0.07534883782565625,-0.3755182977480224,3
9.5,3.3,2.2,3.125,10.475,23.125,8.725,7.575,611.0,215.0,138.0,177.0,598.0,1453.0,574.0,420.0,17.0,14.0,14.0,16.0,14.0,21.0,20.0,13.0,-0.30844925073818935,-0.15372391036054506,-0.057601566847121595,-0.31994944829074656,-0.4231457027936842,-0.11221790685942169,-0.25133822534275324,-0.2105181675941929,-0.26334800936752606,-0.0744106132736167,-0.5957208413627356,-0.13048166077780635,-0.09768973837677086,-0.5459946348803955,0.0457441196805698,-0.5567063139062723,-0.24856440327469517,-0.6531314536223725,-0.08190079893410529,-0.43335986782558505,-0.4975968530379012,-0.41920463647126527,0.05479797915067373,-0.048783033071764965,-0.6149667105187645,-0.3818096020481795,-0.37939276752332574,-0.22319494924768374,-0.19519909027666554,-0.2981692307666289,-0.38362833739083185,-0.21148251192884804,3
11.6,2.675,2.15,2.9,9.25,19.1,8.175,6.775,802.0,182.0,132.0,158.0,524.0,1101.0,527.0,425.0,22.0,19.0,15.0,17.0,17.0,17.0,22.0,21.0,-0.6133061416922788,-0.20926285155422508,-0.08106691248237875,-0.06257565866674725,-0.405071635016759,0.1168917790396723,0.0025357363746640544,-0.0403743049242457,-0.24673769572754578,0.0564797360024726,-0.18507275645325283,-0.5636550734645401,-0.08259040126111951,-0.32220327951877664,0.021629911775995235,-0.40197552427264843,-0.4045042760351135,-0.6014841261805731,-0.3579291825342038,-0.40414715935718004,-0.119136792141815,-0.1867896128784489,-0.3445910506187831,0.20341653427511786,-0.5878654964297677,-0.4351112859649741,-0.1828611869288019,0.020127148289442884,-0.15209844821977297,-0.027311459885606498,0.06490953592594569,-0.003483247214037726,3
7.15,2.475,2.575,3.325,8.85,31.475,7.675,7.825,448.0,135.0,160.0,172.0,580.0,2011.0,491.0,515.0,17.0,11.0,13.0,13.0,20.0,18.0,20.0,18.0,-0.3334490591467091,-0.16282467043388157,-0.19764134348164572,-0.27264538625678425,-0.14361947318747117,-0.048465074783730674,0.021621912515378806,0.012335676146096456,-0.40538127596390794,-0.14219623688184646,-0.11115705708114189,-0.20482878863133056,-0.16412434295007677,-0.27433477367758013,-0.16529074614989486,-0.22738509547361074,-0.7015554941831708,-0.5018837794344475,-0.5854690624993276,-0.42810185400021417,-0.4719067454660766,-0.3464866337169284,-0.5100998053260467,-0.16484122586884845,-0.6411514123966269,-0.47508692399356317,-0.50761655800102,-0.34958034246885866,-0.3993214220155634,-0.2477604070744621,0.0358635483754483,-0.1680802032357057,3
7.425,3.05,2.15,2.25,6.85,24.75,6.85,8.1,505.0,167.0,112.0,120.0,440.0,1534.0,400.0,504.0,18.0,12.0,17.0,15.0,18.0,18.0,14.0,17.0,-0.43376549526357744,-0.21866878553065497,-0.26440160679159497,-0.33963917481346656,0.06775332867625859,-0.29844885344841615,0.0855826333739154,-0.12059317885321126,-0.16400248556991232,-0.19252052287753238,-0.0764218234731658,-0.2756997071565116,-0.10356424647716161,-0.2418521735324119,-0.04076427936815702,-0.13443948696661878,-0.4595928520939423,-0.36052745603860525,-0.12203172308865708,-0.10068195990918986,-0.36489806372110545,-0.27449499649846576,-0.003141280241148259,-0.24656577556666726,-0.44338289100584194,-0.3739286325238619,-0.5756538625708945,-0.3078382402229624,-0.5637636320688263,-0.47988133061334165,-0.40571196466274506,-0.27681427177984136,3
7.05,2.95,2.45,2.45,7.625,25.5,6.525,7.15,455.0,168.0,135.0,142.0,513.0,1550.0,377.0,400.0,15.0,17.0,12.0,16.0,18.0,16.0,17.0,15.0,-0.5070072168588998,-0.3903259720801312,0.10426847858605721,0.02431775604382056,-0.18424934373652185,-0.1302858694700615,0.04280887784451086,-0.1124340819007857,-0.37255771317698316,-0.36255599692862694,-0.3369050080086686,-0.15513677743858553,-0.3298179013206099,-0.37034345053495393,-0.13640711869286518,-0.03346592049465878,-0.30406042416423495,-0.11361633979846213,0.10715244284580709,-0.07607194331026616,-0.30452139798225686,-0.07120079558733673,0.13405096414329154,-0.15611659554721452,-0.2321972819288916,-0.42825902510840436,-0.22633140206395708,-0.24920100511072232,0.10441354382557379,-0.4701162765516967,0.10008716662581718,-0.09441772384306905,3
5.6,2.95,2.225,2.85,8.825,25.25,6.65,7.225,366.0,191.0,147.0,175.0,615.0,1700.0,418.0,448.0,19.0,15.0,13.0,19.0,19.0,21.0,18.0,15.0,-0.12776597865919903,-0.20236395395326814,0.10279881485495604,-0.1393097028690072,-0.3049109263754665,-0.3775147101987724,-0.1661757456082212,-0.4639976266711426,-0.3228475869535849,0.0021966058558246827,-0.03987848065354748,-0.3376256733533366,-0.4380061692537019,-0.17497087177250953,-0.13802061175810781,-0.12377120037789983,-0.620367658879186,-0.3133801243997252,-0.2652706960830492,-0.2768264693900371,-0.3384096056366116,-0.08963009249069238,0.024283693322514444,-0.4670243742921384,-0.5719027359771959,-0.41302507579359343,-0.4093226994229229,-0.32998996388241725,-0.44457199333443104,-0.5762345675355528,-0.1923986337512669,-0.3570202674552172,3
7.9,2.725,2.375,3.25,8.425,25.05,8.35,6.975,515.0,176.0,128.0,199.0,532.0,1680.0,595.0,419.0,16.0,19.0,13.0,15.0,14.0,19.0,23.0,16.0,-0.29051236942611713,0.08688911115661845,0.39169831175246217,-0.0786195897704788,-0.4466239833923436,-0.2917151666024724,0.14431599402672923,0.1359261328129495,-0.15623496176973248,-0.15617682513714573,-0.20920579840851772,-0.12172901723710278,-0.4829530135201815,-0.07296886152594963,-0.21698058814506374,-0.13625124308992578,-0.6822053473484653,-0.5494973252745855,-0.4763352960216293,-0.40596833950677397,-0.4304482297959418,0.10173491271782151,0.028810666352603778,-0.21109218490659853,-0.6465958926184735,-0.12617789131822693,-0.10685302392618734,-0.18913180463042095,-0.2661712829258571,-0.3581404386483089,0.039670325738210166,-0.08769895916867033,3
8.025,3.65,2.525,2.95,9.4,28.7,8.975,7.5,545.0,234.0,129.0,157.0,617.0,1800.0,548.0,480.0,23.0,16.0,14.0,18.0,19.0,20.0,17.0,20.0,-0.45162440315028946,-0.04546205653212897,-0.35332391829130244,-0.30740324946819175,-0.503978390262566,-0.2805193859473192,-0.32747660426741454,-0.02659477775177181,-0.08623028841978189,-0.0512400226888047,-0.29048968912168727,-0.17992521932673844,0.005040822367185135,0.05010298074344125,-0.39925694678743007,0.0540348979257039,-0.46878505393217773,-0.19495936217081525,-0.06026761563241767,-0.10390319165222911,-0.12896607102462015,0.26698922539425035,-0.07314891230808346,-0.1692950891776247,-0.291803885569369,-0.05450176901267484,-0.06833327804712976,-0.261647597399319,-0.43221896385042985,-0.338686754332255,-0.15467245357966994,0.033448672741249935,3
8.8,3.15,2.125,2.975,7.725,24.15,8.575,8.025,615.0,197.0,101.0,182.0,528.0,1413.0,462.0,510.0,21.0,15.0,13.0,17.0,22.0,14.0,18.0,19.0,-0.3822464690325962,0.045647330293320784,-0.23869310106126743,-0.15220998126812055,-0.6286787102272788,-0.4009412874410748,-0.4684597948442133,-0.479709986446378,0.0254561959889271,-0.027731857440954414,-0.1386301386602751,-0.12762957670753797,-0.44497183519737626,-0.24484379251740698,-0.20040637168868874,-0.37017764864088276,-0.5436460837552357,-0.3711688901325116,-0.31722313887935016,-0.47538441918036084,-0.21378519216813321,-0.06617628336820822,-0.0887491430658426,-0.1136340149980522,-0.10753074358218116,-0.2562547985738226,-0.04605565394570455,-0.41873009899283564,-0.34878847770899496,0.0558081758218117,-0.2819964670007602,-0.26628312086730027,3
7.275,3.45,2.25,3.475,7.625,34.675,13.875,8.425,446.0,226.0,151.0,207.0,538.0,2338.0,813.0,545.0,16.0,18.0,16.0,14.0,17.0,19.0,14.0,18.0,-0.08733662588867705,0.05893805446604384,-0.13910003399550425,-0.025314626719212585,-0.4633905528209548,-0.2431036629354844,-0.01936825141926537,-0.24200596202443475,-0.2484460672365061,-0.1329726421479274,0.12328857190568006,-0.24696536323251217,-0.44720676652906166,-0.11606693787861985,0.16578563382328249,-0.09088794460753222,-0.6738930140031572,-0.5346609454471785,-0.23518990994507227,-0.21173320163574108,-0.5876659892635496,-0.5322567612189878,-0.2989879649408059,-0.2741302815989211,-0.20195453446170827,-0.36500894814977025,0.06764507285505383,-0.42017620565444036,-0.4225896303823464,-0.08167310239709392,-0.14886191521932776,-0.3805605897264205,3
8.775,3.1,2.75,3.4,11.45,33.0,10.2,7.25,577.0,188.0,169.0,201.0,755.0,2069.0,640.0,449.0,21.0,15.0,17.0,17.0,18.0,16.0,19.0,12.0,-0.22816745215196696,-0.22457009215979543,-0.15241753749780487,-0.060991984070368224,-0.17012453529838,-0.06907514692680773,-0.4061936010386334,0.007414888619077895,-0.22936370583224838,-0.0647196431161696,-0.3050976208534396,0.01585729442458847,-0.139117860925287,-0.00309174152151981,-0.2059049658641201,-0.10142957722279333,-0.653194441174868,-0.41802457379043506,-0.46898188482775915,-0.3505919982003691,-0.3303750891377814,-0.36540557671428103,-0.2492479227477502,-0.26463868643156385,-0.12705768411257276,-0.4776888773113488,-0.09206649164996579,-0.3794982533265637,-0.2340853972037643,-0.20740762086005654,-0.3146832526674938,-0.3000744616277377,3
7.5,2.85,2.025,2.575,10.775,36.1,7.825,7.05,506.0,169.0,109.0,138.0,671.0,2193.0,510.0,483.0,23.0,13.0,9.0,9.0,15.0,15.0,17.0,20.0,-0.5606833958823009,-0.11553561529054929,0.10792354176892154,0.029909755526714755,-0.04065877374564152,0.1098329701655228,-0.15989000918018803,-0.1114445395809204,-0.0813910656701146,-0.08641106566032525,-0.10667259638604251,-0.15629257977090333,0.10556883115937585,-0.17329251918916105,0.10984280227277848,-0.14301190886803195,-0.4760642014184795,-0.26124678392892414,-0.5436307169454291,-0.2992655853104756,-0.5977455256554599,-0.5211403187979272,-0.6074235631368193,-0.5004758935992166,-0.1966696527415099,-0.4050920712539867,-0.1468634442795023,-0.17781387508183794,-0.4750002204461608,-0.4797724706445702,-0.10138830185935392,-0.19109462466638485,3
8.625,3.65,2.05,2.35,8.2,31.15,8.8,9.575,528.0,248.0,126.0,156.0,603.0,2090.0,599.0,634.0,15.0,20.0,18.0,15.0,24.0,20.0,20.0,18.0,-0.3067913479961985,-0.034475873454447505,-0.012869941299484025,-0.20321859099657957,-0.31734405793509163,-0.000773701198555257,0.1562072570695755,0.03977535298445805,-0.20804813887588097,-0.08350472820450473,0.33184159864583973,-0.10487492565395455,-0.4500280300927785,-0.2203590121499209,-0.04359658519518372,-0.3119157102482821,-0.7303399772979814,-0.34444012916679184,-0.3007389953314372,-0.19245154012495952,-0.695138922684735,-0.6017583993722417,-0.3462036174190217,-0.2665327219042026,-0.5325973619078045,-0.4627675221641552,-0.13872116877494797,-0.24331306161830782,-0.251081722115424,-0.22180344747811043,0.011794932972527929,-0.3226691533776366,3
11.025,3.05,2.15,2.65,7.925,27.2,7.45,8.0,623.0,191.0,113.0,173.0,544.0,1934.0,419.0,469.0,16.0,19.0,10.0,11.0,19.0,25.0,16.0,15.0,-0.20187299979457457,-0.1411277764987221,-0.25617804250628295,0.026225067580731905,-0.2973782727286727,-0.12088557594275302,-0.03406760556177092,-0.07464846904362653,-0.05783419052174404,-0.34571196318185754,-0.09720112292847038,-0.38785702580799647,-0.40040426747705404,-0.3519857358097872,-0.30470608455105747,-0.40470761661665133,-0.5853910316716584,-0.4838999901181945,-0.536905270923135,-0.09432754672760811,-0.6577678369715689,-0.3358303974690965,0.005670957274388495,-0.014110157741034763,-0.14677060862543417,-0.3520368767083784,-0.09743313426515295,-0.16975063033144025,-0.16201855879859142,-0.41421150686109437,-0.12299848577474494,-0.28802272672167223,3
8.45,3.25,1.975,2.5,9.525,21.5,5.975,9.5,517.0,203.0,113.0,148.0,672.0,1211.0,428.0,614.0,14.0,8.0,15.0,15.0,17.0,15.0,18.0,16.0,-0.4446799820151555,-0.29042589889977827,-0.09405495470908759,0.17380078562879744,-0.33570998771746935,0.08190935978090161,0.07049404670873627,-0.02712077467228258,-0.2055061293146093,-0.3970998962758685,0.15367398208700772,-0.13952286724644597,-0.46944757807933757,-0.2850113861626834,0.13109024348880088,0.08968905749990279,-0.8431111703212969,-0.6254963439178594,-0.5399952759137937,-0.24935673468721656,-0.07727569686108515,-0.3556417691159928,-0.20259818371931865,-0.279845354346336,-0.5177724923230079,-0.48567878250655583,-0.08877773630347537,-0.12053017508942596,-0.5225575920684128,-0.5057935706780663,-0.325337338873936,-0.44547008505864705,3
7.7,3.625,2.6,3.575,11.775,32.5,10.1,8.5,502.0,224.0,176.0,239.0,815.0,1990.0,677.0,552.0,16.0,18.0,19.0,18.0,18.0,18.0,23.0,14.0,-0.41383204102876675,-0.08640989061166922,-0.04997196329720471,-0.24016866093813785,-0.2773034920106037,-0.028689447683547187,-0.04824643565505544,-0.3100659020757258,-0.6500105297751622,-0.3601234697598049,-0.24397371075604102,-0.39469356601139616,-0.6265875882991189,-0.36546574384142444,-0.2318022801755719,-0.3366725296035894,-0.8916742022409345,-0.8436918864109334,-0.6969479583070465,-0.49581915512494984,-0.4046780802911483,-0.3976856688742903,-0.3015909406850482,-0.27815103492101556,-0.48860459563247904,-0.5088390830096768,-0.16154075771561696,-0.4518897901504629,-0.5254911249305855,-0.4240158490390358,-0.4110578985940903,-0.5985140627747959,3
