0,1,2,3,4,5,6,7,8,9,10,11,12,13,14,15,16,17,18,19,20,21,22,23,24,25,26,27,28,29,30,31,32,33,34,35,36,37,38,39,40,41,42,43,44,45,46,47,48,49,50,51,52,53,54,55,Gesture
17.15,12.575,5.25,3.825,11.0,22.25,5.4,9.675,1183.0,752.0,361.0,229.0,708.0,1363.0,345.0,593.0,21.0,14.0,18.0,14.0,18.0,18.0,20.0,12.0,-0.5572790119119416,-0.1710618413109392,-0.16691765858861204,-0.11646157780747873,-0.2851711453873669,-0.39834283480532867,-0.16361775770126694,-0.14299299993593576,-0.6175807287507233,-0.35108740400637084,-0.45846357710060226,-0.3180949714801884,-0.46536213041743785,-0.3786461579545146,-0.4663376708985141,-0.28940612944181193,-0.33392758452742766,-0.15537275978094292,-0.23982637537176268,-0.024217493744183013,-0.29715544053108883,-0.10080955258388222,0.05738477189466206,-0.24118334620614867,-0.3835511518403921,-0.21904482796589814,-0.10282255858922767,0.16706341586846585,-0.2099541984374171,-0.16591913035590153,-0.07615615073369623,-0.16309778302952535,2
14.45,14.325,5.725,3.95,11.2,19.6,5.7,8.975,904.0,1018.0,373.0,246.0,755.0,1330.0,382.0,613.0,15.0,23.0,19.0,15.0,19.0,18.0,16.0,15.0,-0.5130418931240543,-0.1817300876297511,-0.09761349371360041,-0.2127674651742723,-0.6458607982433343,-0.40270365245535755,-0.04759596330735225,-0.07429337551807665,-0.6974619645472041,-0.46477352136984684,-0.507787779708204,-0.3194417363225105,-0.7488286526785374,-0.6535152303690844,-0.588154469829232,-0.37562734465360614,-0.49566077504129413,0.05843327331267174,0.33424528561145656,-0.07602495947206447,-0.5974908677160196,-0.3100189345241054,-0.30909091189754856,-0.16089994063405813,-0.734928122204491,-0.5980733192770944,-0.3267473610049507,-0.11556702033736939,-0.47506567585807624,-0.2571522831689905,-0.08281810560506059,-0.19617621630766835,2
14.425,8.775,5.075,3.95,12.475,21.55,5.875,10.775,1034.0,593.0,354.0,256.0,824.0,1331.0,342.0,723.0,23.0,13.0,18.0,18.0,17.0,17.0,16.0,17.0,-0.6755044991186414,-0.314017483562082,-0.4533980873871209,-0.43611323079945585,-0.5291665010709233,-0.3694816106610124,-0.053435613462724026,0.06493568437009305,-0.5651037138393137,-0.2357100997402917,-0.2672437984768619,-0.12622780895367025,-0.6719626356442134,-0.5195103535164827,-0.4820171372339757,-0.26092675015372513,-0.5508681049509117,-0.27880557391735156,-0.06503191478711834,-0.05082175578510898,-0.5334546616759306,-0.5609150555866712,-0.3241105296570689,-0.13029685488988463,-0.38032931072565546,-0.39265234058799625,-0.20190235570146411,-0.10597065872312601,-0.6738045013778571,-0.40111730975773335,-0.4480209327913843,-0.4148874069703782,2
16.1,13.45,4.625,3.975,13.875,19.6,6.025,10.675,1166.0,913.0,286.0,239.0,1000.0,1372.0,388.0,704.0,21.0,20.0,17.0,15.0,19.0,18.0,20.0,15.0,-0.579859428211595,-0.2379321333969147,-0.26900543643070174,-0.2939536614327545,-0.48136915239994643,-0.10266207155019309,-0.43225476632206333,-0.3112686278286969,-0.4102876963776267,-0.06352188058864724,-0.1847748728497841,-0.13502503468553426,-0.5522966082105294,-0.4464197785803823,-0.3653921614066643,-0.31102841033196116,-0.8410431294797912,-0.6507260377240442,-0.4098213346183164,-0.27103821670493733,-0.5579696398996691,-0.5050820083325627,-0.2923216824366414,-0.20909091812847816,-0.4695017052645314,-0.18338110491776244,0.2555387902088916,0.10323066293363456,-0.42097796324936004,-0.29531914256290787,-0.3023236147834748,-0.15443575863742726,2
14.925,18.3,5.9,3.95,15.125,28.375,6.85,12.85,964.0,1160.0,289.0,231.0,1062.0,1993.0,412.0,916.0,20.0,14.0,11.0,17.0,21.0,20.0,13.0,21.0,-0.45100487739184586,0.02575543051845115,0.06613058657200821,-0.06751965059024015,-0.25283418615783276,-0.03174219445771414,-0.21589000255196197,-0.17967850657294818,0.08964524152432969,0.02992678058756143,-0.11694700823503107,-0.21746436137892367,-0.18701842664449878,-0.3047961987078908,0.19821580768900723,-0.29109252594618584,-0.6894191432633373,-0.4611359944977216,-0.3520625347921475,-0.2791225641515543,-0.9072249187237381,-0.7662846324737447,-0.5367707755592612,-0.25350101536214786,-0.4734356066178967,-0.2762236454155492,-0.3842204641864218,-0.2391028718695056,-0.7434809497445117,-0.38519854764347955,-0.278472233987215,-0.26535866944200687,2
15.65,13.45,5.975,3.15,12.7,20.05,4.925,9.925,960.0,845.0,375.0,179.0,842.0,1271.0,302.0,685.0,19.0,13.0,14.0,9.0,21.0,16.0,14.0,20.0,-0.4592510694028543,-0.25733649701345307,-0.29300665677191384,-0.33084379432478783,-0.17615998419537948,-0.12313137475516354,-0.14239740676231405,-0.3115534138739714,-0.3019539969749179,-0.15242346363850767,-0.2363053517428159,-0.2577589985678037,-0.14824627746355898,-0.49179881855114493,-0.11449789210945827,-0.443306667044642,-0.4569313426318288,-0.23530316121373326,-0.0034156618293093312,-0.1838330326078037,-0.49531918492364513,-0.32856807678878047,0.015392675630275441,0.04616218406148631,-0.3740791069292446,-0.29992645194294093,-0.30626422819847293,-0.1858059347690592,-0.4941556058458495,-0.28305549999062135,-0.0416834643248657,-0.3319053447568273,2
12.775,12.3,4.425,2.65,14.475,18.6,6.025,10.925,814.0,773.0,298.0,154.0,952.0,1196.0,425.0,682.0,16.0,16.0,14.0,11.0,19.0,13.0,16.0,17.0,-0.5204725530461356,-0.14906093353532449,-0.23455414582622722,-0.2397212491673718,-0.41498291515888336,-0.2633740076562581,-0.4366414083846777,-0.14471279038056448,-0.37857176492049116,-0.17394927551049574,-0.05515566162267425,-0.11151338164393051,-0.16547459566204475,0.0971479273954542,0.024131187360225997,-0.3707692500599608,-0.5616968617139222,-0.17348920410085336,0.005595517036310534,-0.22873941231357123,-0.17663120160463144,-0.37790351557362195,0.08160996842191949,-0.15732740440575846,-0.5827649274055257,-0.48409701274719763,-0.21032827236220786,-0.16026529585613078,-0.21549476269689088,-0.05256565073412681,0.1471798067203744,-0.28171411725047546,2
12.5,13.775,4.9,3.525,12.55,21.5,6.375,12.575,772.0,878.0,322.0,207.0,724.0,1246.0,387.0,832.0,17.0,20.0,18.0,14.0,15.0,15.0,12.0,21.0,-0.35296129209364596,-0.4316888605324467,-0.16941634183755416,-0.23904636000354795,-0.4608586135864608,-0.3395533562540837,0.0006961846246097761,0.013526100793510841,-0.42879790786091876,-0.37718104024181376,-0.20808398217114046,-0.4060358950130784,-0.15682192874476042,-0.06516182525478914,-0.06885698613523368,-0.019501271287516882,-0.3677382878199175,-0.39341119917734546,-0.2375041779687336,-0.25561435511994135,-0.20168529044516456,-0.23880539036157603,-0.2077024442996027,-0.1242792439718041,-0.3485129972672799,-0.45149838510225865,-0.1993147452512362,-0.36902886282916647,-0.414313315427883,-0.5351231632957666,-0.08715208499253525,-0.32863400911244356,2
11.2,13.0,3.9,3.825,11.975,25.9,5.475,13.85,729.0,878.0,245.0,247.0,720.0,1580.0,305.0,908.0,20.0,20.0,13.0,21.0,16.0,15.0,15.0,22.0,-0.3688255130859516,-0.16492605319917666,-0.05672953576424571,-0.05797168418044119,-0.2599612521472561,-0.31039713025117815,-0.0012937456105163714,-0.2724937702102134,-0.3477078784853621,-0.17603809404438647,-0.25072468463597886,-0.13731831372392483,-0.47756775199504503,-0.333909104974751,-0.3018169807032369,-0.0843606598993101,-0.34368687647906215,-0.31356486138005313,0.02630520385705127,-0.20424539882945913,-0.30515296395919683,-0.3243674312696345,-0.17821631211407463,-0.274337829461451,-0.4673892676836152,-0.48296410956934177,-0.3551875098355852,-0.29461513489530466,-0.4570147640161155,-0.39221956440651445,-0.2298581402929686,-0.3126666467593318,2
9.05,13.075,2.875,3.625,12.9,20.575,6.6,14.2,656.0,793.0,160.0,256.0,848.0,1279.0,407.0,1021.0,21.0,18.0,14.0,19.0,19.0,18.0,18.0,20.0,-0.681670818361069,-0.04114496916303158,0.21997193574743967,0.05760799830846019,-0.23293397642492214,-0.4089577828506018,-0.24778222265341263,-0.3950205447191768,0.08798751540409032,-0.14041210624514522,0.03135299079712082,-0.19338605580392973,-0.7392181742973744,-0.1977247824236522,-0.3337952466391923,-0.4377674174699276,-0.5537716718374925,-0.3216447112118373,-0.20543691621947918,-0.3010572561692073,-0.44305086474320976,-0.4663560094252779,-0.2337663348275617,-0.1777214686403208,-0.37168337546645824,-0.037761302807447064,-0.1727305527722539,-0.3881384136313386,-0.6952090449459745,-0.4413572233954723,-0.16426573896149047,-0.3321076681023604,2
12.875,13.7,4.6,3.6,14.725,22.725,5.9,11.75,915.0,848.0,294.0,250.0,1022.0,1490.0,353.0,773.0,18.0,14.0,17.0,15.0,21.0,20.0,12.0,16.0,-0.5415607758209996,-0.05139544089197639,-0.08732758488095752,-0.29734801346644024,-0.3138374902053848,-0.20468748224493485,-0.13856402332579384,-0.08067283683066606,-0.5337093734665839,-0.2588684823692221,-0.014002872592272328,0.03335616352387787,-0.5177738357203199,-0.1640791212112176,-0.2765274901799174,-0.15024970846085056,-0.617004550239879,-0.06001484125092907,-0.1651236861520151,-0.25015080909131004,-0.4210821762469411,-0.11819311774450007,0.09398194257337379,0.13658049897053282,-0.22916055274088293,-0.14798924318698986,-0.013875505828290398,-0.20383787975311313,-0.3879129985626457,-0.34747219923871453,-0.04028386194218396,-0.3424526700434223,2
10.675,13.55,6.175,4.1,14.55,25.225,5.0,7.0,787.0,894.0,404.0,275.0,999.0,1592.0,310.0,463.0,21.0,21.0,18.0,18.0,21.0,19.0,17.0,18.0,-0.5535674240103323,-0.08464246048461206,-0.43678310106003293,-0.5206573363715786,-0.48509483771330375,-0.3284083810216803,-0.36384249763410104,-0.23781195554544038,-0.5124626363708429,-0.3711600475659249,-0.3869303535573659,-0.5288788044668937,-0.6049798828435083,-0.2548795956467153,-0.41532740163696885,-0.32693326527184907,-0.7067238476371248,-0.40755296100153526,-0.25159356396703314,-0.2577264824237488,-0.47971280621766227,-0.22367034828906912,0.07137899813331275,-0.10545130976918139,-0.2776072627823619,-0.19487215032755212,0.05201658962757237,-0.3654295353832634,-0.3516647220689457,-0.2753816278127026,0.06079477350875465,0.02979677528836373,2
7.8,12.95,4.4,3.875,14.975,26.075,4.75,9.6,530.0,878.0,255.0,252.0,1128.0,1750.0,309.0,649.0,15.0,19.0,14.0,14.0,23.0,17.0,21.0,17.0,-0.2935352882045632,-0.20828008344851498,-0.2247336590556603,-0.07104846883328698,-0.46535123323292144,-0.43680397754862943,-0.3274640858178227,0.02092148562281884,-0.5013550510771948,-0.542445243047825,-0.31605828508333966,-0.19245870855934896,-0.5469448582456626,-0.5545569447506563,-0.5507833608037773,-0.3070341776966151,-0.8603965144956426,-0.36829568823214376,-0.10295914909294882,-0.21854026138714644,-0.5346567513998978,-0.19944012164743918,-0.38886042594771086,-0.5381791050895978,-0.30716859747494313,-0.06801788324633369,-0.1549514760377448,-0.36199771006120995,-0.3535660923762173,-0.34367508094279736,-0.011400874557577335,-0.2608371488682035,2
11.075,14.325,4.05,3.5,9.9,23.35,3.875,7.875,679.0,907.0,252.0,226.0,677.0,1634.0,226.0,475.0,17.0,17.0,15.0,16.0,21.0,21.0,15.0,19.0,-0.406328331583733,-0.599892197747158,-0.21486392320410277,-0.3116770977279334,-0.41062156841598363,-0.4671443498844586,-0.4084487222433158,0.014752527273652512,-0.431990310479223,-0.20980193022670704,-0.1036462760701146,-0.17059717902482008,-0.35953188698948124,-0.20356779469836933,-0.4868440062610972,-0.023984542002011385,-0.7803869740961041,-0.6065889252231204,-0.3356969144459353,-0.1654188064095803,-0.5948409793806687,-0.133014965011312,0.07544931780107986,0.1839502086786585,-0.05317007758772892,-0.2724193362948619,-0.1605548959249855,-0.36371389245709806,-0.23778405371458192,-0.2489710124641211,-0.2334039786653718,-0.042629951299391663,2
13.275,13.675,4.2,3.875,9.075,23.25,5.775,8.0,957.0,800.0,275.0,212.0,606.0,1258.0,341.0,528.0,18.0,16.0,17.0,15.0,19.0,14.0,14.0,15.0,-0.566942027483336,-0.3577803151356684,-0.43680372019132385,-0.328581466174847,-0.4701816860851726,-0.593320976804514,-0.3308021712024204,-0.19889989427617394,-0.473997846278675,-0.33282162077081345,0.0229254560271711,-0.2207595729408535,-0.3166986673065283,-0.1917412094488515,-0.6064543995600687,-0.13365878951103233,-0.46421876396033845,0.08600074249022675,0.13913194092066689,-0.06486353930319998,-0.18440468063465698,-0.16717441494824012,-0.09883128815431427,-0.035199035233123024,-0.28588357801555453,-0.3106627057263974,-0.3765469049456655,-0.4244798100954705,-0.5592009428532227,-0.4493020722500607,-0.40170338451760446,-0.4485365847437477,2
12.075,12.4,4.2,3.975,11.775,23.575,6.7,11.05,771.0,684.0,280.0,241.0,742.0,1467.0,423.0,664.0,16.0,18.0,17.0,13.0,18.0,18.0,14.0,15.0,-0.2950832882295808,-0.0014704200140187257,-0.25120870996653877,-0.1663199994961373,-0.20367630415283344,-0.2769096695648571,-0.46767117798036395,-0.17267037839926663,-0.38874706687608535,-0.10812608780431439,-0.21824239921667074,-0.33846413846238466,-0.44584815041632386,-0.15961149038461336,-0.1842753094360323,-0.3839828394264715,-0.43848387690795815,-0.20639624867137357,-0.2899941405635358,-0.19203766803134745,-0.4027442943637664,-0.14504349214185439,0.02299771056424053,-0.054977568027126576,-0.39132957821341063,-0.06963011293482482,-0.13142472322410265,-0.19615937459377258,-0.060190941675190415,-0.4289440806118788,0.08109008292543457,-0.18210667914601708,2
6.95,14.375,4.4,3.9,12.625,23.2,5.525,10.875,408.0,937.0,279.0,245.0,838.0,1520.0,357.0,713.0,16.0,21.0,17.0,15.0,19.0,17.0,17.0,21.0,-0.029402244592667492,-0.07313125206555439,-0.17198077276631646,0.048570378224231804,-0.3527481350960306,-0.2164918453789947,0.051866498129880104,-0.2118596825426226,-0.31746524738477644,-0.07497886149151091,0.18538193754876997,-0.16104317145476763,-0.47547773690652967,-0.3022062835865776,-0.22337177777864725,-0.3108967884320563,-0.6312351315796162,-0.4010558661501183,-0.4353194058405566,-0.20451950157341048,-0.6360632786210093,-0.42733749641716445,-0.1275028923643678,-0.09309733233113027,-0.798631145422564,-0.6511522134990719,-0.63410325340965,-0.4055989591680768,-0.36519067213638806,-0.08597011759740092,0.07219738242928357,-0.134950400615695,2
10.875,15.2,4.175,3.85,10.925,15.725,6.575,11.675,697.0,859.0,264.0,217.0,759.0,1017.0,410.0,742.0,14.0,15.0,19.0,15.0,20.0,15.0,17.0,15.0,-0.30782785300211074,-0.10019023114563441,-0.23044897818735446,-0.18404145556535043,-0.17704179855555677,-0.2054066152332506,-0.3472561341661673,-0.41345047485547237,-0.4620852945586592,-0.3883489402206536,-0.34284938093794814,-0.33330311357663356,-0.4240015269261448,-0.36385625168847846,-0.35180447650937163,-0.12370301414128397,-0.6197037100526237,-0.1503199676588729,-0.254642338423876,-0.24324759481896255,-0.5750732129825686,-0.2900181482432284,-0.18820910348058162,0.0581889830126057,-0.469005567687336,-0.4122923646816573,-0.42511275673506355,-0.10365297062497486,-0.5088746804046818,-0.3256693334535493,-0.22642585810342225,-0.1222989568293147,2
10.475,14.05,4.025,4.3,10.4,17.075,5.5,12.025,615.0,711.0,242.0,242.0,702.0,1086.0,320.0,814.0,17.0,18.0,16.0,16.0,18.0,19.0,11.0,19.0,-0.18680979103304576,-0.0153329142010172,-0.015902069636236523,-0.23294764116919386,0.14893368138106555,-0.21347712521802348,-0.060035960442707065,-0.24809076249531153,-0.3916266244681113,-0.24078580003381267,-0.32275322837116804,-0.04631682132232286,-0.5758655131543091,-0.5108207721227559,-0.6643155838605493,-0.41374698202931126,-0.6262513278196397,-0.4452104585120195,-0.1800040074958013,-0.06229542275479533,-0.4047334518988027,-0.1211979200715484,-0.2069692443910088,-0.32616749657712046,-0.3880814391021542,-0.47469907802775285,-0.22189790880049737,-0.1620226154751074,-0.8135315336458094,-0.5920869047161296,-0.41028385618089425,-0.33896273540061034,2
13.05,9.325,4.125,3.2,10.725,22.9,5.45,12.55,733.0,585.0,250.0,195.0,714.0,1459.0,342.0,746.0,16.0,12.0,13.0,16.0,20.0,18.0,17.0,15.0,-0.052537683241603524,-0.16509451080970536,-0.014882134075827464,-0.003406610755050423,-0.45005270109563994,-0.02625817151756919,-0.1774772166951272,-0.3187940275300627,-0.4468855799676886,-0.4062432865742795,-0.39321632607686285,-0.3241189792072489,-0.5132943373353259,-0.35244978232354923,-0.4962345867088336,-0.16054615799765748,-0.5911410476997659,-0.477140791829325,-0.43772506240860265,-0.23051980356969834,-0.6185907163767607,-0.6016531824156329,-0.30693995285203346,-0.16480454351464402,-0.39621094350181935,-0.19233868350319341,-0.32343306210782674,-0.06871407997626629,-0.3108498215692465,-0.031036756700286057,-0.16164411481088015,-0.17472068925066925,2
14.575,11.6,3.775,3.2,9.35,21.175,5.2,9.25,962.0,773.0,243.0,182.0,580.0,1271.0,379.0,550.0,19.0,20.0,17.0,14.0,15.0,18.0,20.0,15.0,-0.3647342349475125,-0.40993928511574895,-0.11048685087059937,-0.17078567541761688,-0.4145519670352491,0.029668809515713775,-0.07071578148347182,-0.18421706655245076,-0.24642432870196618,-0.15450233009024997,-0.08640277897047025,-0.2860678123963989,-0.34400500862901057,-0.3581125454613749,-0.46274849639647364,-0.22505790427616643,-0.552970119294472,-0.5356680785319369,-0.3659191119996165,-0.29149383890413494,-0.4069384799596596,-0.34839206497904623,-0.15863135314332671,0.004055907650336555,-0.532845154429509,-0.015137246217376584,-0.010248705786278792,-0.19736548796763845,-0.337087056062288,-0.2553275401639215,-0.23255413538827158,-0.20176461176066846,2
14.4,13.375,4.375,3.225,11.3,20.8,4.325,8.75,931.0,826.0,261.0,195.0,708.0,1343.0,266.0,539.0,17.0,15.0,13.0,13.0,17.0,21.0,13.0,17.0,-0.5095858634186644,-0.4129207572766158,-0.1453703979094295,-0.1522577393103745,-0.4780707285711833,-0.44724395896838937,-0.3731984059110979,-0.21171101724725458,-0.3139720889374454,-0.4414120012662968,-0.31708408322637927,-0.2930131129740785,-0.27934189416116995,-0.1407964211409159,-0.3428218215537229,-0.34986644944048395,-0.5750739438599107,-0.4556348256212414,-0.3186034015915646,-0.34753425725005854,-0.47488159896449206,-0.263313888008777,-0.044275291539793565,0.09277770827555136,-0.3037975178961832,-0.1941857685499111,-0.09110387174941177,-0.2825131588098041,-0.4237199360910534,-0.13028148347233393,-0.18054253642969614,-0.22746113780789914,2
16.9,10.475,4.25,3.225,14.175,19.375,5.825,8.325,1163.0,664.0,267.0,165.0,935.0,1386.0,398.0,520.0,20.0,15.0,12.0,12.0,21.0,21.0,18.0,13.0,-0.5418509221731203,-0.38145682433233213,-0.05221680736779195,-0.05834632426869149,-0.49948879555862846,-0.3273910348752606,-0.0688930522004458,-0.08763235554472862,-0.39757171763500915,-0.30639940654026077,-0.3061432813059558,-0.28860278855143073,-0.23031808091914913,-0.3398870532572212,-0.2543305337604992,-0.33952720614455884,-0.6573636184999386,-0.2789347634612817,0.02475649817537681,0.27715686900437636,-0.6273935551076945,-0.04813598825582402,-0.19254510937124225,-0.20679766050558895,-0.7115900004347951,-0.7000999643186283,-0.4590758540249787,-0.40441007001565027,-0.34968554742996355,-0.43299589223322243,-0.41677948789893665,-0.20152382737199298,2
10.65,11.925,4.0,3.375,14.225,21.125,4.55,9.5,690.0,759.0,271.0,192.0,1021.0,1415.0,302.0,611.0,16.0,14.0,14.0,17.0,20.0,20.0,14.0,14.0,-0.28722691144267903,-0.1210641173444061,-0.1824890597846851,0.00759236119500614,-0.4239684379757683,-0.2711504657456475,-0.41193866561883374,-0.243426030210729,-0.5088600877104635,-0.16089495758213046,-0.19291372039936996,-0.3353664647424099,-0.20524667929402282,-0.31183515989958466,-0.3144395625826545,-0.4347852508475288,-0.8395610360871593,-0.4559409289482442,-0.15158620530123593,0.10275136832267953,-0.6777903449960242,-0.20216595036196705,-0.27701182342193903,-0.4254325365895195,-0.4290015463032197,-0.14936913003441382,-0.058544564375654806,-0.23676545694348594,-0.40083470438680513,-0.1920021689278694,-0.18455950327558263,-0.07396708694857486,2
11.575,10.375,4.025,3.75,9.25,18.05,4.8,8.6,871.0,712.0,237.0,206.0,616.0,1174.0,298.0,479.0,23.0,20.0,15.0,14.0,16.0,19.0,19.0,16.0,-0.6123752548732846,-0.1293036667074081,-0.1712987632102632,-0.261909284377041,-0.4080078046541495,-0.028543503713491708,-0.24556699360765577,-0.20480281606771927,-0.44395888471989436,-0.27003128409842114,-0.33483661747401017,-0.41121753150143997,-0.4102979166896312,-0.24013972530308228,-0.5358171689882135,-0.5609773796290571,-0.5728260954646743,-0.22843938909642517,-0.45384718930367063,-0.3841071102794837,-0.5983093514319929,-0.27732154118495234,-0.42406397155164427,-0.38609588617780755,-0.44555953129712983,-0.5993603237427568,-0.23599409493100726,-0.3414543022760963,-0.15833089172045403,0.0002281760430466735,0.16356260429526268,-0.10819322739054182,2
13.525,13.725,4.95,3.7,11.95,19.05,6.525,9.0,931.0,938.0,335.0,213.0,831.0,1151.0,392.0,596.0,18.0,21.0,16.0,14.0,19.0,15.0,15.0,21.0,-0.4145983229372955,0.072928106038634,-0.06849512186069305,-0.2640003051363103,-0.5474211847089997,-0.09776052174944341,-0.19145454311173074,-0.15915992131355605,-0.45771465631388814,-0.14698305536655318,-0.2759259526670935,-0.3802082541947919,-0.22156588014819248,-0.3099949565448836,-0.02818266489462553,-0.1556162040599035,-0.939669520654333,-0.7640586035122096,-0.43604357083330014,-0.15345720095605778,-0.42120719129611,-0.32108012578850914,-0.16428958535242594,-0.26726904049983047,-0.373441249397118,-0.023189845234779734,-0.26048519236545437,-0.38484543655886677,-0.5626072731078581,-0.45337745389748135,-0.43836879216539987,-0.2599332612776413,2
19.15,13.375,3.8,3.775,13.8,19.525,6.175,12.95,1329.0,847.0,272.0,231.0,847.0,1257.0,376.0,914.0,21.0,16.0,20.0,12.0,20.0,22.0,17.0,20.0,-0.6664699878181053,-0.2472477323952005,-0.345377630338396,-0.31696162853642773,-0.4480501317463573,-0.17017922465502702,-0.22718376504899288,-0.41861921057306106,-0.6288143472974926,-0.22820317452670985,-0.0684971398047171,-0.02780681998580398,-0.2826212080662874,-0.6865842332748453,-0.13677372996293144,-0.5027365857561655,-0.44147670991765636,-0.4770063678914124,-0.20137496019129408,-0.06382703608943707,-0.4116053683041875,-0.2790613823830577,-0.30506332257024316,0.0547818203069342,-0.3843998935789621,-0.1363339960588649,-0.20722320414553444,-0.08564279570867003,-0.4984199317802445,-0.19278488742574645,-0.10376114446925545,-0.2962516818605844,2
17.475,26.425,4.6,3.1,14.875,21.75,4.425,14.675,1070.0,1007.0,333.0,192.0,1025.0,1515.0,248.0,879.0,15.0,10.0,17.0,20.0,18.0,19.0,14.0,14.0,-0.2450354457737253,-0.025327218082272798,-0.14939790612535422,-0.24178492468599266,0.3925693518409584,0.548978227767586,-0.21446189680331448,-0.26095113717321905,-0.5685114228805707,-0.05460104686628313,-0.22655519396273446,-0.17535633844104312,-0.2334183219204178,-0.19601269845963168,0.047834551518486056,-0.39582649060112013,-0.6460574577616361,-0.27439888487452635,-0.579129311652437,-0.42534425194965564,-0.5454796273698096,-0.20802800179748612,-0.28061289759435415,-0.23645440878499316,-0.28036168494752617,-0.13930599855921721,-0.4289732471749186,-0.284344739075025,-0.24215116661941338,-0.14246190410822357,-0.2769576699951495,-0.31041336749559306,2
19.05,20.55,4.45,3.625,15.175,27.05,5.5,12.6,1333.0,848.0,281.0,221.0,1014.0,1614.0,338.0,874.0,22.0,14.0,16.0,15.0,21.0,16.0,17.0,23.0,-0.3621587311448334,-0.08690683589943696,-0.06067790614240481,-0.5063916979057278,0.3479135840941474,0.06965237371542857,0.24780109639441333,-0.02073620240691697,-0.4052596301810367,-0.285315457170606,-0.2979109899323484,-0.2051743649673936,-0.35921859677461593,-0.5710071798645331,-0.323000322898333,-0.4377380516943248,-0.5613608428768497,-0.46372394327036376,-0.3884245057528315,-0.5307017519448616,-0.28943967346517147,-0.23833903079385424,-0.26972104247390655,-0.47910425509839144,-0.4213602837248274,-0.4082179579509902,-0.44103827098993953,-0.3999499202953445,-0.3493712746675673,0.03246848061995394,-0.3515778765828243,-0.31359389165232,2
18.35,12.225,5.075,4.825,13.7,24.3,6.075,12.875,1221.0,733.0,284.0,209.0,895.0,1461.0,410.0,905.0,21.0,17.0,13.0,10.0,17.0,21.0,19.0,16.0,-0.3873392066910608,-0.030605805181718602,-0.07213634152440673,-0.12273164607605137,-0.20100431666894356,-0.3398564133495072,-0.1297539360367868,-0.046717772494861,-0.179506425097828,-0.38590568151690274,-0.06633733338523926,-0.22252226694775432,0.37462786391395525,-0.16673029602179643,0.02174536227031639,-0.22502853096415154,-0.43684361493660656,-0.45055364435756673,-0.12704013593324973,-0.16609983783241195,-0.2505997043137714,-0.10854946315927272,-0.2964247861540971,-0.475980554652628,-0.37491758234567757,0.02507098518871443,0.03297297121775857,-0.19950203890024867,-0.5144026591345444,-0.04877666421920274,-0.11152060890932586,-0.10235019239355607,2
16.4,14.8,3.9,3.575,14.65,23.475,6.025,14.8,1089.0,885.0,254.0,192.0,934.0,1597.0,402.0,977.0,18.0,16.0,18.0,13.0,19.0,19.0,18.0,18.0,-0.4495414326741394,-0.15797976161586538,-0.18651036344274274,-0.050521397010700304,-0.346824234276479,-0.5397872369921372,-0.21148808763794755,-0.34397740291894524,-0.492241696954251,-0.3598513595403124,-0.3606220245002698,-0.3504725571803484,-0.09027188800060072,-0.31471903349556746,-0.2097940621743079,-0.19204227412694802,-0.4546410094462366,-0.2531300597006026,-0.019318540566915787,-0.17062028855795996,-0.5501294623704169,-0.08175065677774712,0.09788994757459231,0.041103526163034816,-0.47990770707220753,-0.004862400868219078,0.2749966015337611,-0.13521544360865873,-0.455240358592998,-0.1117727776004034,-0.14480379487815026,-0.030697695545563185,2
22.325,11.95,5.475,3.35,13.375,23.725,6.225,13.675,1561.0,686.0,377.0,212.0,988.0,1467.0,367.0,894.0,20.0,17.0,20.0,14.0,21.0,17.0,16.0,17.0,-0.4185424079523501,-0.26063516798938635,0.07182001618392378,-0.35283320223865616,-0.04670323867390303,-0.3083074828704817,-0.03212475102423945,-0.1557410144025495,-0.6052920394143072,-0.1773040299615956,0.0662676454534945,-0.1610620323300651,-0.3736179368520764,-0.1833445440076601,-0.16341088193907652,0.09601116424218314,-0.832520456073517,-0.2724772968014953,-0.05582832089848908,-0.0957502932869624,-0.49694346465895667,-0.44302525710842233,-0.41294607545612766,-0.29061336349328826,-0.41752356198909474,-0.3878577343286944,-0.10908310007979448,-0.2675274911753524,-0.4461603930302176,-0.32733348321387273,0.10902295888879301,-0.06044122751331562,2
19.075,17.2,5.325,3.225,12.05,23.475,5.65,11.2,1216.0,1099.0,327.0,181.0,832.0,1551.0,363.0,768.0,16.0,19.0,16.0,7.0,20.0,20.0,23.0,19.0,-0.38215105090654855,-0.05842888185372976,-0.10528445722731036,-0.2499412295493867,-0.37659031915290814,0.03161975825973208,-0.20595610922955357,-0.5197693967198727,-0.36245134879379765,-0.21484160101454666,-0.01519060005872502,-0.07788855805323007,-0.07479880103537667,0.09961591338413417,-0.09842308861521726,-0.1239570554739905,-0.5520581145839542,-0.11787154176647643,-0.31500121866346126,-0.29194737620427746,-0.6229381009301144,-0.43347804816850255,-0.5620457448512766,-0.27465723632028566,-0.5258249440669355,-0.26436455041251966,-0.2894138033150747,-0.209360551206958,-0.451271887278719,-0.22249118214142533,0.06545692086933058,-0.1799355748065572,2
17.35,15.425,6.175,3.325,15.1,21.325,8.375,12.75,1137.0,982.0,410.0,175.0,1066.0,1553.0,594.0,829.0,21.0,20.0,16.0,13.0,17.0,21.0,23.0,19.0,-0.3197628673804829,0.12928546425255838,-0.13587496016828285,-0.07569983405674957,-0.5790190870197299,-0.2510178333446153,-0.3392295568044455,-0.32128040100902727,-0.2527104606777845,-0.015179359775096797,-0.12489080226714323,-0.09676964437706094,-0.15820083214691152,-0.23864139935985743,-0.13964542582969636,-0.1137958030619441,-0.5790409716238526,-0.09242505259803083,0.11916268533848573,0.1049823254935704,-0.6382158103431386,-0.15981617693313035,-0.19385849914591102,-0.18839340752503517,-0.659365069745598,-0.39874433219623645,-0.25102536429814176,-0.41375588873157315,-0.2331260590266846,-0.08201414766247253,0.0585016657668752,-0.09578617444509278,2
14.475,14.25,5.05,3.5,10.375,17.25,7.1,12.975,1062.0,972.0,324.0,200.0,690.0,1152.0,421.0,952.0,20.0,19.0,15.0,13.0,18.0,18.0,16.0,20.0,-0.4883022005031817,0.3023783331969626,-0.02808288429059899,-0.26761137993727835,-0.4142835272991322,0.01966676520255777,-0.0051770296636326684,0.1175623360429555,-0.4473204612396895,-0.15648350613616152,-0.378448999373051,-0.48084319716060697,-0.05918523346025821,-0.30156981869145355,-0.09863734881216424,-0.44838015358506156,-0.5910788968247779,-0.23658069510147886,0.14924713742746687,-0.04636346781124817,-0.35279948387255594,0.0623530492137985,0.06791861851395992,-0.3109262254638941,-0.4612122163623555,-0.14618545311613354,-0.07216270874245484,-0.23067348085828293,-0.6333402124376837,-0.1916203536795395,0.02077458994826685,0.14647553041721245,2
11.4,11.9,3.3,2.825,8.05,9.25,5.0,7.225,763.0,674.0,166.0,164.0,518.0,642.0,293.0,524.0,21.0,11.0,10.0,16.0,18.0,16.0,12.0,20.0,-0.7341257462788892,-0.6764029422102418,-0.17057246695242428,-0.09780094223442466,-0.061495043082216275,-0.198054119505769,0.06248687372902935,-0.20945037981865944,-0.10016598924695727,-0.11995723700974806,-0.24896394604759609,-0.34628137678998916,-0.1944830443292674,-0.022081380676376692,0.05047432656898765,-0.0038389905154199303,-0.40898002543496603,-0.22363962896850184,-0.5715412066935828,-0.20199205357878222,-0.3822106037981319,-0.026461401466330924,-0.04554783249868315,-0.2716838726035124,-0.3343841424248052,-0.18499961408187843,0.04127722241184386,-0.28695503339364387,-0.5139196141118932,-0.03241351160480299,-0.24864930036817942,-0.16194242491379146,2
8.075,7.7,3.6,3.675,9.85,15.325,2.95,5.475,559.0,522.0,206.0,229.0,644.0,1049.0,164.0,372.0,17.0,22.0,17.0,17.0,19.0,16.0,10.0,16.0,-0.49468717327042433,-0.22116945293379917,-0.1376218320434406,0.04349122213651776,-0.7330980564970363,-0.3781984737501866,-0.2698990706131595,-0.19279996595659424,-0.19266058087470933,-0.16065126743137442,-0.23276291406681004,-0.2493695077342747,-0.1144596535620981,-0.2849692820022051,-0.015011971477747337,-0.3626867596304443,-0.38010047832807115,-0.05626851023539638,-0.4249757952577834,-0.21233350722509334,-0.4006033825287602,0.07073888895560392,-0.21070714025664145,-0.40428318494081306,-0.006752967330222547,-0.12805865919859227,-0.18858739408574596,-0.26381987776259574,-0.6006581891037119,-0.1999970860444611,0.21316105315629935,-0.15443037942542265,2
7.125,14.775,4.625,4.875,14.8,23.025,7.925,8.95,442.0,725.0,266.0,297.0,931.0,1405.0,482.0,601.0,17.0,9.0,14.0,17.0,20.0,14.0,14.0,17.0,-0.2363461967670339,-0.27431034733203996,-0.15821725975603065,-0.1851320402675554,0.1481974427124563,0.05687667840903493,-0.08979473505013925,-0.10947977277743667,-0.27184055832078935,-0.11680784218283322,-0.3361148483842023,-0.3914909727749136,-0.11210807084745063,-0.24744868988655017,-0.19664920413786074,-0.38457548263874747,-0.6071392075920075,-0.33505949643169675,-0.4165367096104112,-0.35975352429051466,-0.3087663020513905,-0.19188019947508578,-0.2725439082292606,-0.14809352039192467,-0.4075690222675975,-0.5228614581923955,-0.3594387013418452,-0.44973067792347166,-0.40166073074542835,-0.106806175522113,-0.09929664737803266,0.036148693754631214,2
5.925,8.95,3.575,3.025,12.1,22.55,6.875,11.0,365.0,493.0,217.0,192.0,765.0,1416.0,449.0,742.0,18.0,14.0,15.0,12.0,17.0,18.0,17.0,18.0,-0.49710561583097557,-0.37607255572977805,-0.2285291326363439,-0.29873806073411546,-0.18955628475785888,-0.1630024450460063,-0.18195960549746287,-0.19483249479693435,-0.44438988569801724,-0.19264961736324196,-0.25835920777212223,-0.29543398140950383,-0.6453258612231376,-0.6213132598348604,-0.3264751208986051,-0.18247591308566857,-0.4232869239057266,-0.12567449904639066,-0.3573097075203289,-0.4344218780676927,-0.39769457342551856,-0.0306672095964644,-0.1213927441681796,-0.27816642787117724,-0.519647892263757,-0.3569777941175636,-0.10374299436502135,-0.16359481311417975,-0.5414116875241086,-0.10539058368519759,0.083803514930753,-0.021070764099303512,2
7.725,12.825,4.175,3.525,13.475,29.5,8.95,8.1,491.0,681.0,279.0,185.0,860.0,1795.0,517.0,506.0,18.0,14.0,18.0,13.0,20.0,16.0,17.0,15.0,-0.5639815376416635,-0.3395895480247346,-0.22289974325091302,-0.20995819733115875,-0.15877369976858544,-0.23121409118501013,-0.3696253132901409,-0.3175071553368166,-0.7070785986708232,-0.6953735775215628,-0.40732688658013405,-0.4179526156651077,-0.11649599702220048,-0.4272785608179407,-0.24477385964027784,-0.2838473041862846,-0.3560999117518193,-0.05745822457368089,-0.34263804011982596,-0.34635979708212766,-0.35876871564381924,-0.2722548823540224,-0.3025387450710419,-0.36323291645695255,-0.2056494981282003,-0.16841414703797206,-0.18021879710422548,-0.3145924205029177,-0.39962614011314646,-0.14706248745236644,-0.28592362060307946,-0.23542143691377346,2
10.625,12.5,4.55,4.55,12.7,27.525,8.2,8.325,691.0,704.0,317.0,264.0,870.0,1723.0,549.0,568.0,17.0,14.0,17.0,20.0,22.0,21.0,21.0,15.0,-0.6911161636130253,-0.30417731783333846,-0.24356355542085784,-0.23340851700955792,-0.026363440436000387,-0.5701213486292203,-0.0854628476271513,-0.5402747381177502,-0.6427952075313806,-0.3319908706091357,0.06927446029483143,-0.02106028609883623,-0.24269021134091637,-0.272898161808637,-0.18919552454518984,-0.10919908343175919,-0.4376931554798844,-0.05875949332190103,0.08727491931099117,-0.22618061306510506,-0.5968170613170827,-0.426122828301603,-0.17946874990003114,-0.31128326244930143,-0.4056245499492646,-0.11047747181317841,0.044778678659619826,0.027549257786813747,-0.4061839183098878,-0.13015927555265713,-0.5745799628567825,-0.37269474625233123,2
16.3,14.1,3.45,4.325,15.75,23.8,5.875,9.325,1094.0,912.0,214.0,274.0,1096.0,1590.0,390.0,518.0,20.0,19.0,16.0,20.0,17.0,22.0,18.0,15.0,-0.899052608463908,-0.5423008929752154,-0.3298783291783846,-0.28752719155755213,-0.4461016289308328,-0.3683320666903405,-0.26406405649645864,-0.34073580744045356,-0.6059450675410956,-0.5620997509598441,-0.4799546352360802,-0.28611093600736864,-0.6847090745151886,-0.6627339265607703,-0.3867800140380033,-0.24226933691617147,-0.2931843756944881,-0.11188963088428688,0.11516683397189563,-0.36244439578441573,-0.508865339366238,-0.21880967750052854,-0.04525811672601752,-0.14369006530696077,-0.30730824183604605,-0.17341720298181137,-0.41461893619334933,-0.006476328965593703,-0.26296802246312384,-0.3618547622801006,-0.34771096534713936,-0.274874495849265,2
17.875,11.175,3.7,4.35,14.375,22.825,7.175,8.1,1220.0,692.0,229.0,276.0,975.0,1455.0,488.0,457.0,22.0,18.0,15.0,16.0,16.0,18.0,22.0,20.0,-0.7199168388784623,-0.32707105531859404,-0.16744523339942355,-0.22293011732896098,-0.5457871237658987,-0.1718867224460034,0.2440634916771592,0.038128311886123804,-0.40091549880858957,-0.32208839535874134,-0.4064458119110407,-0.025889182956640326,-0.4713444275587137,-0.2633179354362976,-0.1745922097006807,-0.27575321934451197,-0.29713423180936926,-0.3460444481486454,-0.1906005611397476,-0.5305830955405063,-0.3942900183861175,-0.3151047484789396,-0.24530973192341954,-0.22888540780470784,-0.5558087409383002,-0.11818848196524007,-0.11527307414109127,-0.16647331073544944,-0.29459862231928813,-0.5161726675200278,-0.15077635815973697,-0.4325129981171184,2
12.825,8.95,3.8,3.725,10.775,24.85,7.55,9.425,812.0,618.0,242.0,222.0,675.0,1698.0,508.0,600.0,16.0,18.0,15.0,15.0,16.0,20.0,22.0,19.0,-0.543796145021842,-0.3504014363361937,-0.302152995657439,-0.1902628069188571,-0.3721234999807473,-0.09063688347357278,0.17592189268039507,-0.050449479547858396,-0.36325964578372266,-0.16830089439751067,-0.46451851831611773,-0.1630651621291205,-0.28175495299946546,-0.30429410809292073,0.19577943974813541,-0.09592747261923978,-0.1111004293782123,-0.8263077385283559,0.08544011855214503,-0.549810566916479,-0.48762010648066595,-0.2038388500750929,-0.2108738925050321,-0.21346897971241244,-0.6927503639275596,-0.36529975187996605,-0.04518167145473873,-0.08944634570751335,-0.5000370162319103,-0.30278894811873214,-0.29458081999353175,-0.3798204034492529,2
8.625,4.875,2.525,4.625,9.25,25.375,6.975,8.4,583.0,282.0,152.0,301.0,666.0,1478.0,420.0,550.0,19.0,13.0,15.0,20.0,23.0,14.0,15.0,15.0,-0.5960212408302603,-0.38191923250100646,-0.4333177374231933,-0.32684083702085187,-0.35027398922521835,-0.32859733797928875,-0.1247985715259515,-0.19635989571796797,-0.20615563737099077,-0.27742335544885244,-0.10585847706847196,0.014134267822604175,-0.42747854438986854,-0.27669176415327845,-0.1477137288005079,-0.31729956947515564,-0.6656559243257572,-0.3876581287991376,-0.1493213777688813,-0.317141789714926,-0.400717417525405,-0.4090617850049137,-0.24804173751437686,-0.42997443136833813,-0.38687823644862934,-0.4603757192945853,-0.13834921739513226,-0.44312150753241014,-0.35078867372870015,-0.06843182163187102,-0.14154555754564208,-0.10399904815765132,2
7.35,4.375,2.575,3.725,8.65,16.825,5.775,7.15,435.0,280.0,171.0,220.0,531.0,856.0,334.0,430.0,17.0,19.0,15.0,15.0,13.0,13.0,15.0,14.0,-0.452516742959242,-0.3883302468255588,-0.3709333246034433,-0.2124748254619198,-0.2215789681320339,-0.07261795132894189,-0.38271786989427997,-0.17998730644716965,-0.2605951712798646,0.0622875780382042,-0.41900113961254465,-0.2749275524257705,-0.24218229807073427,-0.07517270833196871,-0.25750409296548615,-0.3195904876939245,-0.20120506604873148,-0.3061991658129428,-0.13465941438863738,-0.2544848465397364,0.10749705281809555,-0.22014459100887315,-0.08113180179615839,-0.3400496738492586,-0.3443168858027999,-0.39500525217166604,0.012787516857294755,-0.11181744749333454,-0.2317602324135129,0.03695182913169801,-0.1787394186295293,-0.2458649913899311,2
5.6,4.475,2.525,2.825,10.55,18.25,5.475,8.225,331.0,301.0,143.0,187.0,737.0,1213.0,354.0,463.0,9.0,21.0,17.0,12.0,21.0,18.0,16.0,11.0,-0.13342931774365538,-0.14565706797874267,-0.09250196496997892,-0.13623895246864104,-0.4701700987775944,-0.43292533090867896,-0.015231594891118298,-0.28373897110295165,-0.1325019799035896,-0.032847666909383115,-0.10559034636761983,-0.42969629808527715,-0.24358493215888372,-0.0632802328271277,-0.2028508191363318,-0.39853505231756975,-0.42129139376977964,-0.2068735660349856,0.013469030695438155,-0.30066948158272927,-0.43134017547167247,-0.24967940059072907,-0.39966645128403405,-0.06629422489997736,-0.3139453805960544,-0.2409338708482865,-0.4355646667958834,-0.28226958364848026,-0.22013323272525342,-0.13703115638472466,-0.3511475702438014,-0.3075577595843903,2
6.25,5.175,2.225,3.075,8.95,22.05,6.375,9.375,408.0,319.0,126.0,192.0,638.0,1460.0,371.0,630.0,18.0,16.0,14.0,15.0,18.0,18.0,13.0,17.0,-0.15698699658642548,-0.05843527158450352,-0.01726193082886918,-0.20183955859815586,-0.1357523758305995,-0.3950484999485241,-0.07209074427821256,-0.1869316939398031,-0.33208279474363134,-0.2732813040915574,-0.38204433301023377,-0.2313196225806134,-0.4517618601932799,-0.3486654132141907,-0.09630523212668177,-0.06606468260715168,-0.5137462227487385,-0.3003593976966189,-0.17619075003359314,-0.05930444267524037,-0.6130711510906028,-0.3502969066240069,-0.18123251467932222,-0.01235583194562185,-0.30880220198732755,-0.15940529665202627,-0.20457841169076982,0.06414516825815227,-0.5193555073949265,-0.07508241914964972,-0.1316745809596572,-0.15206550718691605,2
7.2,4.8,3.075,3.45,11.55,20.075,8.375,10.375,425.0,283.0,174.0,197.0,817.0,1169.0,534.0,735.0,15.0,15.0,15.0,14.0,17.0,17.0,19.0,19.0,-0.3593674612391785,-0.21574326635946425,-0.18501239825287746,-0.057294596932006565,-0.29281635005303097,-0.2813536263715176,-0.22302369637154118,-0.22189893268103492,-0.34030468489737825,-0.5100004831327495,-0.46914775309337475,-0.25191708803348767,-0.23543805462471487,-0.5089740941789913,-0.13802587134298794,-0.32658730333544905,-0.6953959557516288,-0.44692666318207785,-0.09491096516039035,0.013339950004580534,-0.19262062463049626,-0.4702895933500692,-0.16233864466607434,-0.3207504169239464,-0.48036720628333834,-0.259687783066545,-0.28067328033911093,-0.14843816401724141,-0.7780919527142847,-0.46225700820515975,-0.24062097431660942,-0.20127546443920213,2
9.55,7.175,2.85,3.5,11.35,18.2,8.125,6.725,616.0,469.0,168.0,237.0,700.0,1110.0,536.0,402.0,20.0,18.0,16.0,19.0,20.0,13.0,17.0,17.0,-0.5234676083957555,-0.3691043402053608,-0.2764452582544514,-0.4243319089572077,-0.4835517633392792,-0.32353949372250895,-0.19124832704594136,-0.23458548987025002,-0.26926732097295386,-0.14000979167370484,-0.320923047435698,-0.18281569699116912,-0.5453524234747414,-0.37273768411150765,-0.2752040620313901,-0.45889620647058255,-0.577786363182733,-0.5026520967094089,-0.31583211347704554,-0.198905565330754,-0.30910253210512406,-0.6427317460290941,-0.2792984838845675,-0.5827460480510634,-0.5267181462810817,-0.31574699427449815,-0.22447315308707622,-0.45112191334131607,-0.208698369987405,-0.18302097576312168,-0.046032916635188534,-0.20249691919123133,2
7.4,5.3,2.55,3.675,12.55,16.475,5.3,6.375,461.0,344.0,150.0,225.0,857.0,1066.0,319.0,330.0,16.0,13.0,13.0,13.0,22.0,17.0,16.0,16.0,-0.1641099698138834,-0.27977857026721886,-0.08496766160465807,0.1187986512402404,-0.6144487499875019,-0.43750111479402376,-0.35619151846209446,-0.3079144824345259,-0.3758635496278906,-0.14019927816104338,-0.13886215049575132,-0.1599922254816045,-0.503161310700249,-0.5159160615830815,-0.4122422042379726,-0.4185783910778914,-0.7926947792795095,-0.31183140768913303,0.015690243785471077,0.028698204013313692,-0.35402335292938847,-0.4152521094744412,-0.11550486013346924,-0.22367988427141222,-0.545725639538076,-0.191268648817308,0.006680214759840424,0.03148106421489155,0.004186062755296319,-0.22083691107485834,0.059654411337324825,-0.20823803744107497,2
4.75,3.85,2.75,4.0,9.775,15.475,5.65,8.575,285.0,240.0,146.0,190.0,640.0,1037.0,327.0,528.0,15.0,17.0,13.0,9.0,17.0,17.0,14.0,18.0,-0.08953328983266527,0.028386496819423564,0.010137138393761382,-0.12619048018521906,-0.4110473349377182,-0.3730253855275128,-0.5570909228487104,-0.11698961635348688,-0.04822013383021267,-0.2778512338839217,-0.24663202109229915,-0.13577233595563384,0.03248606818123878,-0.3712931513607893,-0.19767446233224378,-0.39394630629590754,-0.6250274412071423,-0.29628955187480327,-0.028566636178993535,0.012796039591898449,-0.9068996302439312,-0.5405326149204627,-0.34884996661984985,-0.11540154948901156,-0.3622722507878409,-0.2376014242559707,-0.15438536137498812,-0.32729065581518524,-0.37296996223642526,-0.34163724558884156,-0.25164438267664796,-0.271381013358123,2
13.4,6.35,2.625,3.075,9.075,19.5,5.425,10.125,860.0,444.0,125.0,167.0,542.0,1315.0,267.0,670.0,15.0,16.0,11.0,13.0,14.0,18.0,13.0,16.0,-0.6415100020766494,-0.476509391393599,-0.2655573571389687,-0.1659358401013639,-0.5630994318035772,-0.3916535478851993,-0.39604486238412834,-0.34398759424688924,0.12556868581438868,-0.13997578155336413,-0.31738161701288803,-0.08242945865856362,0.042871223606674606,0.045162121789586354,-0.14314967858114672,-0.09216766558369559,-0.3098451738121709,-0.26593108372734964,-0.1536126339121715,-0.2659085812686905,-0.5631530185124466,-0.2512479995959682,-0.07829977254746251,-0.06227735330789912,-0.009593008286345754,-0.3137605076907841,-0.046614547621149825,-0.1278409323994552,-0.5049839596499363,-0.3888229881439229,-0.11698667156637127,-0.25517340892562745,2
8.7,3.625,1.925,2.875,11.775,15.2,5.15,8.275,499.0,243.0,109.0,157.0,713.0,941.0,349.0,463.0,18.0,18.0,13.0,15.0,18.0,18.0,19.0,16.0,-0.47407217241251254,-0.1596735873593288,0.013570872557405996,-0.06681471816679874,-0.7162876980513341,-0.2892528859011719,0.03445238926716788,0.20843784278319782,-0.06941994369572542,-0.17253501852325678,-0.02382075875938214,-0.02687322705756187,-0.1573729030451854,0.11995889932783879,-0.2147482281366194,-0.04707373865251301,-0.4355901501992193,-0.23767022299961035,-0.162351022303839,-0.13767965367574053,-0.398996486327793,-0.05507830842781815,-0.32033195216279475,-0.3781592103915131,-0.45632065719169873,-0.32381271531830524,0.07605023571703697,-0.1467218954132861,-0.18402923031685267,-0.34958825125316095,0.03850641541568489,0.058767481282353935,2
8.725,5.325,2.5,3.4,11.75,15.875,6.25,9.125,533.0,331.0,145.0,205.0,768.0,981.0,395.0,617.0,14.0,15.0,13.0,15.0,17.0,16.0,18.0,18.0,-0.21760599579017031,0.021352062068014238,0.2739951100411142,-0.04969302377026574,-0.25228418760747323,-0.07625232049396254,-0.07219757964586189,-0.12357902987280647,-0.2125420801573861,-0.029341250234406258,0.07393635663078085,0.03863243527446023,-0.428571206167259,-0.1146869309635248,-0.3750678379652528,-0.11893829151151744,-0.48572007768348474,-0.4010398602072793,-0.3106728265203112,-0.053739869188873614,-0.4532997693048837,-0.44980575113018073,-0.2811245234186172,-0.27417275197597235,-0.8048547354469534,-0.7131688245764066,-0.5893769974214818,-0.5435511992932536,-0.6119202885091026,-0.34163724475000146,-0.19613698909026814,-0.16225186025331825,2
9.525,11.8,4.5,3.6,12.3,16.75,5.25,8.775,585.0,839.0,275.0,217.0,823.0,955.0,323.0,569.0,18.0,20.0,19.0,17.0,19.0,15.0,13.0,20.0,-0.12241338333329735,0.12451584938646057,-0.20000513659665894,0.006318604917326045,-0.18919102544265973,-0.007573916105873519,0.10331552039346081,0.04438163587763752,-0.39174785803256695,-0.0769632361888502,0.014081919111003571,-0.2561612968227238,-0.46384720974279886,-0.3565065925827494,-0.24883828339460204,-0.24735979371611083,-0.6630467810483761,-0.43474688980197135,-0.0637874980360546,0.04718779964128814,-0.5506818574098703,-0.537401745179359,-0.6180152128240654,-0.3089346278643759,-0.8102160935717125,-0.7464956912239704,-0.7705379798419166,-0.5342618197178514,-0.6087742484897306,-0.5214370159171104,-0.3228965245857779,-0.26412756661260955,2
15.7,20.125,5.775,3.8,11.875,18.075,5.275,11.825,1016.0,1191.0,351.0,239.0,755.0,1231.0,296.0,746.0,17.0,18.0,17.0,15.0,19.0,21.0,14.0,16.0,-0.3607987127122472,-0.10549055570337941,-0.038018555144147176,-0.1453581956193202,-0.165134658590537,-0.12274671661258062,-0.16514768668462754,-0.07219408462703988,-0.4267178813077031,-0.2352777993750877,-0.2304526798830969,-0.11060909199966408,-0.6097823847482634,-0.24891138459399054,0.013663972166126035,-0.1619961743344209,-0.5755886241995926,-0.3061523600532481,-0.018995426734508776,0.010992177633829004,-0.46133632358478355,0.05187412785041129,0.08514002264074827,0.17047941883517925,-0.3556332447319894,-0.4455157671507421,-0.2771335579578747,-0.15771005441019723,-0.36524498954324386,-0.05675285921711344,-0.14394465639889686,-0.1811851649291431,2
9.9,18.125,3.95,3.725,9.075,20.175,6.0,9.275,576.0,1124.0,274.0,219.0,610.0,1369.0,356.0,586.0,17.0,17.0,17.0,16.0,16.0,17.0,18.0,19.0,-0.17509392261781428,0.05276549286251025,-0.34064142159200167,-0.12802722882027306,-0.40282169290899644,-0.04208574151041394,0.15053862685050823,-0.058685693692123043,-0.2546816746511374,-0.10063295440580133,-0.21543851104952488,-0.02306621309344443,-0.20537163144549128,-0.2859371871321436,-0.2409830835193114,-0.251060343745389,-0.3510378826013858,-0.19525926687357453,-0.5271639052054683,-0.2160365461355798,-0.44475877353576815,-0.2165294952932266,0.1513779081711864,-0.11400876115509058,-0.36317878134584586,-0.2990625155906685,-0.18514773787281785,-0.4094161656473599,-0.4264315149845284,-0.14734301473846226,-0.10601924901455721,-0.07820288348389466,2
11.125,17.625,4.575,4.075,8.775,19.4,10.325,10.8,693.0,1126.0,273.0,233.0,621.0,1292.0,590.0,725.0,19.0,22.0,10.0,15.0,19.0,19.0,13.0,18.0,-0.20580892735334877,0.0033282693876063086,0.019524829100226973,-0.32820117661094994,-0.38634972106508647,-0.23947184842478023,-0.020717562210383914,-0.30412373594738384,-0.25056566670296576,-0.14538250431026223,-0.20656522261458704,-0.10803151530617107,-0.3506137259406966,-0.2597087977150508,-0.3697414865186058,-0.29765889308812987,-0.5749407964677257,-0.22451149789798067,-0.08283557411996006,-0.06507635056325559,-0.6239194011318087,-0.7529249786012296,-0.348699600264584,-0.36017429686372043,-0.2074204463290827,-0.3638860651666174,-0.28054124377186285,-0.44199366605105844,-0.5396233218678905,-0.3100806078172319,-0.25633900111877495,-0.2662394718570114,2
16.1,14.15,3.725,4.375,11.425,16.075,8.775,9.85,1033.0,887.0,228.0,255.0,753.0,1007.0,570.0,639.0,19.0,18.0,17.0,17.0,18.0,17.0,21.0,19.0,-0.4765626473039486,-0.36861027160784765,-0.005731746557316551,-0.026329460718819465,-0.36051428937957086,-0.04793007564015695,-0.062348890340381935,-0.06794906186412819,-0.030935814989819163,-0.21186113416828908,0.05431740392123342,-0.1164003730626891,-0.23576965472275868,0.16785889948848215,-0.20591830585290802,-0.2503321606567859,-0.5233351468375118,-0.2998421918683696,-0.28339877344205255,-0.2286360620961699,-0.4266910455304543,-0.15321414069001277,-0.16262909789532676,-0.17021215267580517,-0.6197569339534054,-0.5040060008859241,-0.5249103196581153,-0.5634627651974394,-0.5543620999597658,-0.43421463115677084,-0.1063640199143356,0.1165684608668894,2
16.825,13.6,4.375,4.0,10.975,17.475,5.7,10.0,1088.0,781.0,274.0,240.0,645.0,1139.0,397.0,652.0,16.0,14.0,17.0,19.0,13.0,18.0,15.0,22.0,-0.43489462419827624,-0.40207632321429376,-0.044284013936796596,0.0033566721410059823,-0.2318322410564126,-0.09726719166676627,-0.10607767975193515,-0.18394371365354248,-0.1538981578063124,-0.00033882139011099266,-0.08853973364831362,0.04236572004995719,-0.1020358733585697,-0.16017081371240904,-0.034321556592178844,-0.15958443288221102,-0.35240140379295914,-0.341181821581209,-0.4021989757192447,-0.3902193868418562,-0.4877530458139487,-0.3370144443618846,-0.24519500351026707,-0.3959492372457953,-0.33032515574942306,-0.05659729679488209,0.09669362627870016,-0.1482549405454539,-0.48804426601357026,-0.3433570567196244,-0.06936870291241362,-0.29278390759320294,2
17.85,18.875,4.925,4.25,12.8,16.225,7.1,10.125,1157.0,1114.0,305.0,268.0,865.0,1037.0,511.0,675.0,19.0,17.0,22.0,18.0,17.0,16.0,21.0,19.0,-0.4802102522413774,-0.24889149670788302,0.015296299686662353,0.15822256019750192,-0.221140003584592,-0.4529484766063663,-0.2597658103432558,-0.2841046856355589,-0.12900408466345725,-0.02646841180291499,-0.2463949399046846,-0.024896597531352458,-0.4180687091123217,-0.213549836612325,-0.1888382312482816,-0.20647935009360663,-0.5353070101810867,-0.43750893133433333,-0.29728360285249494,-0.24374638789952363,-0.46508630299643083,-0.2928289022414706,-0.1065991687750171,-0.33556770072727904,-0.4990701593183449,-0.1970879908078564,0.03186661169355569,-0.10503295571080128,-0.4499347773030402,-0.3186508993677734,-0.3676188626615884,-0.30602683594847957,2
17.175,19.475,4.875,3.875,14.275,22.75,6.5,13.925,1079.0,1146.0,281.0,222.0,923.0,1438.0,451.0,928.0,14.0,13.0,18.0,13.0,21.0,18.0,21.0,19.0,-0.3863350983980913,0.04439262148019064,-0.23347232418381947,-0.15104864753503386,-0.15245786765865688,-0.23024632742306236,-0.2434547405489981,-0.16740094902940378,-0.01817435214806699,-0.0994796034360461,0.09852602157317052,-0.1576044640145012,-0.29201198578663257,-0.15521462770707772,-0.325329669853629,-0.3308383891895389,-0.44412164855697567,-0.37884060091969657,-0.055735508750494135,-0.16599571572286198,-0.13648209666918104,0.13707416019165528,0.10258553559881574,-0.38750111426121836,-0.39569179446602765,-0.12979777203260068,0.16175192901471022,-0.014132265881806915,-0.4445671074996381,-0.5112635881925254,-0.10775905480550285,-0.34154839797808423,2
15.125,18.325,6.025,4.375,10.175,22.225,6.7,14.225,997.0,1152.0,385.0,280.0,560.0,1482.0,428.0,931.0,19.0,17.0,18.0,19.0,14.0,21.0,20.0,14.0,-0.17225751131429645,-0.1384011765445717,-0.13351587068217632,-0.5415755600498702,-0.36274391802658223,-0.24872820273894566,-0.21181419014718225,-0.2407878595435213,-0.4281758279414505,0.05718322092127914,-0.24692153459328012,-0.27558453928682025,-0.5474923870372671,-0.3734799342552376,-0.46993203822054547,-0.19909427327994852,-0.22827074041841725,-0.16528948882446418,-0.3009069666028802,-0.12379196951795994,-0.31673012870110084,8.552309273185384e-05,-0.21047327509634167,-0.29850847342215825,-0.27732611256331335,0.08105007981449812,0.028144527172840498,-0.12262274902862758,-0.5247847432245174,-0.40697903098259747,-0.17667128958618677,-0.20377922449139832,2
14.875,13.225,4.85,3.825,16.775,28.425,8.425,11.875,977.0,895.0,270.0,221.0,1075.0,2039.0,556.0,750.0,17.0,18.0,17.0,13.0,16.0,20.0,19.0,17.0,-0.3790000041696904,-0.21032418634459493,-0.24699768328445762,-0.3245663079197287,-0.5043546415654271,-0.006699675225423965,0.04889397000764619,-0.06614615623035836,-0.1302588221790529,-0.19481353602072496,-0.15605074177780284,-0.3443970284651623,-0.2843832182233647,-0.262957380053462,0.04014571863465928,-0.02759614305263479,-0.5656109270283971,-0.5958356711834535,-0.3531451059378901,-0.3191833475765688,-0.6592312746696318,-0.42286295389644313,-0.077409794855803,-0.101782356361557,-0.5483668016457214,-0.27105307804211276,-0.418462563782929,-0.2992435981281739,-0.7942044747446032,-0.8146703230740616,-0.6524923684219947,-0.4006517658151076,2
16.2,15.55,5.125,4.75,15.525,24.525,7.875,11.575,1109.0,1005.0,366.0,312.0,941.0,1538.0,518.0,728.0,19.0,21.0,21.0,18.0,18.0,18.0,21.0,15.0,-0.691747202104808,-0.4514989485411516,-0.4644254518091151,-0.2901763926411145,-0.39428743258015453,-0.14713700656034304,0.050009505896648286,-0.32071374598985114,-0.9974685639931283,-0.8105597734636232,-0.5453912678636958,-0.13682007817562403,-0.5123701288448429,-0.32867646381328164,-0.26777106473301315,-0.14926725169261976,-0.5896121876806146,-0.22485204843468495,-0.14908819149966993,-0.1335240769748828,-0.30899704371833037,-0.18222728905412916,0.008061958589759142,-0.20637605684335208,-0.5036546854066917,-0.14029455368622384,-0.21339844336953084,-0.11120270306782738,-0.42223777837876314,-0.43424008919655843,-0.3652658732770927,-0.473344465943725,2
14.625,13.775,5.9,7.35,11.45,18.975,7.175,10.2,1053.0,855.0,351.0,402.0,756.0,872.0,471.0,610.0,17.0,17.0,19.0,12.0,19.0,11.0,19.0,13.0,-0.5317132244695931,-0.028915241763561545,-0.08997396478507298,-0.15260508137286186,-0.3222305301337858,-0.2787423558992565,-0.29872211548929567,-0.36587779706938034,-0.44961156563692184,-0.30863395965610824,-0.28210970166912047,-0.18976061236148384,-0.35986426308830544,-0.31423641834618454,-0.4129764212209016,-0.24167872277752595,-0.6339770239085187,-0.45349422910764287,-0.41715100511606196,-0.39440837659969,0.10387412651680275,-0.16499240814625213,-0.10578134458663391,-0.15501680169587,-0.7164829691371821,-0.6711254312981657,-0.4487775463625294,-0.3870051067629472,-0.21873099133618412,-0.16603879218792253,-0.21158684892736215,-0.053333255413559606,2
17.35,12.425,5.475,5.925,14.275,19.725,5.5,10.05,1059.0,828.0,290.0,347.0,1007.0,1158.0,351.0,611.0,18.0,17.0,13.0,16.0,19.0,18.0,16.0,19.0,-0.40396683355698815,-0.24181923044484605,-0.0901020079728385,-0.30977082709098636,-0.3223093028206687,-0.07318242508413199,0.22694960049875865,-0.200959270017596,-0.11721035089689955,-0.25263160113231337,-0.2544512288229849,-0.09157833007397732,-0.2907124798048369,-0.3321293784633026,-0.24932017198586684,-0.2155135175320412,-0.610685920099693,-0.22771526433665318,-0.027048091323595154,-0.11916938464166607,-0.2775440202444673,-0.21777560711750554,-0.07618200034194314,-0.3689907737247787,-0.21729163882051983,0.13303572013614007,-0.15843567093051814,-0.02462363620018416,-0.19123729177041177,-0.030444332550787254,-0.0310448482224567,0.1841562655658238,2
15.575,13.25,4.95,3.825,14.05,23.0,5.2,10.625,994.0,861.0,328.0,242.0,965.0,1445.0,311.0,684.0,19.0,17.0,18.0,17.0,21.0,15.0,17.0,19.0,-0.23157379535015607,-0.3188786360170965,-0.027230302385603266,0.05824404398519312,-0.3381111051590132,-0.39970009350395436,-0.05340497396203394,-0.26832343975251155,-0.31347506362562255,0.04652936062058384,-0.26992993861244347,-0.25201046016370243,-0.34374707130011006,-0.1262717747402815,-0.3670089023055588,-0.09059745052730143,-0.48843632834224054,-0.15754897135146653,0.16883555358158606,0.07984364625906039,-0.6075517205514406,-0.5767842814748296,-0.29974146110601685,-0.23368129668905532,-0.2824636955438348,-0.28620593697260543,-0.050771611816682584,-0.2357683438098492,-0.47783600607530335,-0.18833202043145247,0.12741285155767673,0.19531083748258016,2
17.125,11.225,5.05,3.95,9.975,21.2,7.275,10.125,1135.0,709.0,319.0,231.0,620.0,1452.0,466.0,670.0,21.0,21.0,17.0,15.0,17.0,23.0,19.0,20.0,-0.37798029804564465,-0.21174228599947725,0.14740244190955584,-0.08456015611099257,-0.15856364797099154,0.09007878759143106,-0.12390146362892407,-0.1518052312984004,-0.42548186894611767,0.09646141998591083,-0.05223094373765156,-0.06793004797398786,-0.22527727348906834,-0.0885461121662065,0.10128023540543155,-0.1761304993545142,-0.4920592391349274,-0.6305335603958314,-0.34672472214669375,-0.13125211281970925,-0.47776651659314573,-0.10517662360202061,-0.07415250581793223,-0.1205224765117431,-0.30227694095842755,0.03400144029768581,-0.020127244355995333,-0.3243829345725285,-0.42239134136333073,-0.09305090726469482,-0.13210261333824183,-0.3087049977437143,2
13.225,13.05,5.225,5.525,15.65,22.325,7.15,7.8,860.0,754.0,305.0,306.0,1126.0,1408.0,424.0,485.0,15.0,17.0,12.0,17.0,22.0,18.0,16.0,18.0,-0.23559474404246067,0.004909407880185812,-0.029988771134544276,0.11845464609480998,-0.14394733894938858,-0.35667591541198934,-0.20870991349282064,-0.3723399023844574,-0.1486062056495299,-0.03592065567644445,-0.1315360102258803,-0.1379797225336533,-0.3026124829888699,-0.09365313622744928,-0.07046436822607925,-0.23092028526047886,-0.7570176920229972,-0.2525208201836592,0.06335857323286807,-0.15884794713107273,-0.3513171279433802,0.0065532409930517035,-0.07976973065502901,-0.24734917642661342,-0.1102967437144534,-0.37480378705569445,0.05952258190391191,-0.34451174360357206,-0.309417598634725,-0.2728570490650906,-0.29084094295181134,-0.2759840851495086,2
19.7,14.525,6.125,3.4,14.975,29.3,9.975,9.625,1317.0,980.0,360.0,169.0,1022.0,1953.0,608.0,616.0,19.0,18.0,18.0,14.0,15.0,19.0,18.0,17.0,-0.500646706857535,-0.1581690718366739,-0.048276382897227244,-0.2535122344837238,-0.6597775453164506,-0.429623078081267,-0.3833839217595274,-0.4009109445887009,-0.18042577417936215,-0.060295814313102415,-0.18161825730315193,-0.05613855744729264,0.10058226192302457,-0.40371453572286686,-0.0027090027686721223,-0.09674213359781812,-0.5223565936676606,-0.2887127449684343,0.1290844916723809,-0.13977786465416522,-0.42093177938212717,-0.3774270160288873,-0.03764171529258278,-0.13294077809047855,-0.40994125306606527,-0.1386261223848591,-0.45653116018146006,-0.27656200332522596,-0.5077502137218419,-0.3481327093343899,-0.3160527198154749,-0.4342379465540641,2
21.75,16.85,4.6,4.45,13.8,25.925,10.05,12.35,1495.0,1082.0,245.0,239.0,885.0,1571.0,646.0,834.0,18.0,20.0,11.0,14.0,18.0,18.0,18.0,21.0,-0.5792930675257305,-0.376966298157494,-0.23682567196960783,-0.36859602535222286,-0.5607765956951087,-0.2566750150618483,0.08441964530793675,-0.05566381138953257,-0.14384970549480153,-0.19816728677623285,-0.3943984942758975,-0.1614268533682641,-0.35649670400167344,-0.43998235561306387,-0.486225714211018,-0.5303471672044567,-0.5126939552790216,-0.37255273101769076,0.11907029150899619,0.06592773220886454,-0.2334421630099287,-0.22974177550230163,0.04343922394087332,-0.1956514264291274,-0.61117898184635,-0.21241925078687188,-0.5976100622880137,-0.3771621179355418,-0.6505626820761317,-0.26588696506270154,-0.138878742605808,-0.25323613080619367,2
13.925,14.65,5.175,4.275,13.4,24.15,7.35,13.55,858.0,776.0,309.0,227.0,916.0,1637.0,430.0,959.0,18.0,10.0,19.0,15.0,22.0,21.0,18.0,22.0,-0.2629903828719215,-0.1242743682011445,-0.16946055392508266,-0.36372717638549934,-0.07252751302696342,-0.013857172535192145,-0.03872171714500956,-0.37091822219213866,-0.2630798884782662,-0.06103563869424233,-0.17070414542530485,-0.1357249631693188,-0.3284704850253803,-0.3774716302374011,-0.46463557719720894,-0.01945425843776654,-0.8339445970972161,-0.6778624518655927,-0.2618819747443494,0.035848141020910204,-0.46303019955251373,-0.4268687166493814,-0.014153393129839193,-0.2708397233685784,-0.23687150369270302,-0.4227142101358461,-0.2910396492659095,-0.24929637397485852,-0.7241916402581094,-0.20697800950187994,-0.6028267997040996,-0.43054833128571696,2
16.525,16.125,4.5,3.9,14.0,24.05,7.075,10.075,1178.0,895.0,252.0,220.0,942.0,1497.0,453.0,626.0,19.0,12.0,15.0,15.0,17.0,20.0,18.0,15.0,-0.6312509165502218,-0.26436927983733016,-0.0969930982813767,-0.2067634212209238,-0.06368415947071857,0.10410404297614886,0.311250969101203,0.05065884307953375,-0.16092195881434587,0.135601401125801,-0.12090144494872633,-0.3394603265405295,-0.32859719487147104,-0.2821837594769639,-0.3879097352718328,-0.4350541750716033,-0.6166821756308088,-0.3715261013752235,-0.03522495491258067,0.11455653384777346,-0.40593217164748235,-0.33664662759984104,0.05312934549581033,-0.07733565482401933,-0.19867719534022216,-0.18366509401884756,0.013087688354853614,0.14362590734605096,-0.3598097066310522,-0.0819903147270028,-0.11440607378486918,0.23875967907015075,2
12.1,15.775,4.9,4.725,13.5,19.425,6.3,11.45,826.0,1100.0,297.0,288.0,909.0,1269.0,400.0,654.0,17.0,24.0,14.0,16.0,20.0,18.0,18.0,15.0,-0.3498425909575934,-0.17893129247769693,-0.038067181345141775,0.24219647816471013,-0.894535785577262,-0.7119704438342511,-0.46174493226033364,-0.31435350075021357,-0.4321546072353485,-0.0413162638380985,-0.0408988346406901,-0.15736527511679593,-0.3605486382518161,-0.323173888495442,-0.23559108210542562,-0.35860507610724224,-0.5126275974230955,-0.2549709937919381,-0.12222624648745169,-0.1428694112523046,-0.5848079804523394,-0.4871115478286957,-0.41304180117708195,0.06208912026165909,-0.530624612127788,-0.4647920005531408,-0.05359314014342319,0.05977792945223039,-0.2103795098304052,-0.1191077300228876,-0.20471780097849085,-0.09765016567057005,2
12.2,12.2,4.05,3.225,12.475,21.95,6.75,9.9,779.0,699.0,252.0,178.0,841.0,1443.0,410.0,632.0,15.0,15.0,16.0,11.0,18.0,21.0,14.0,18.0,-0.46399565567012396,-0.272641662415971,-0.14607224200350938,-0.08756761613854623,-0.10834095871861482,-0.002290519746904273,-0.2087272579905522,-0.24249462067586394,-0.2870947840916135,-0.0417025097894234,-0.17079013720708694,-0.06644700617108835,0.014801448905271408,-0.08481670868840886,-0.19276522413764943,-0.11621747591854047,-0.4506797408422012,-0.2708404555985696,0.16839551891254917,-0.10881949277112397,-0.4941518487333709,-0.500778819373003,-0.3781505715494758,-0.44450547676546803,-0.5030631888920849,-0.551800004936,-0.4540138010320144,-0.6806910440261169,-0.41473074188851056,-0.060345578512075046,-0.22495539235363177,-0.2558513668573336,2
14.9,13.725,5.6,6.4,14.275,27.15,7.925,8.225,995.0,933.0,381.0,342.0,926.0,1824.0,549.0,552.0,17.0,14.0,17.0,12.0,20.0,23.0,17.0,20.0,-0.3066621533012566,0.14875417933117877,-0.04389032478716506,-0.0229468232929807,-0.5228834999524656,-0.25016457986877166,-0.3753118054264274,-0.2426479766036627,-0.5249419426894059,-0.3316462626231606,-0.24936013896176487,-0.19282271440745205,-0.23972538017042544,-0.3273677120991417,-0.16174266325835185,-0.23480547344143698,-0.5540733193901055,-0.21788062537285524,-0.15621749846884733,-0.34356079952211327,-0.7091498349260338,-0.4086886644903178,-0.17799960020562552,-0.04670509270220534,-0.5419092621267986,-0.37161478120024255,-0.3763282194651102,-0.563314118301022,-0.5238267318655822,-0.06957646130009389,-0.4174198272178978,-0.4242692185504901,2
18.1,17.875,6.325,6.2,12.675,25.925,7.65,13.3,1202.0,1217.0,423.0,372.0,877.0,1910.0,540.0,957.0,20.0,23.0,17.0,14.0,22.0,24.0,19.0,21.0,-0.5140726838752516,-0.015053821500245758,0.15505404792174754,-0.16782508328478624,-0.40779707773602636,0.022202233337454254,-0.15278414587855887,-0.16372368361020626,-0.38096055973689835,-0.3612619907117719,-0.2018990936123951,-0.19761302371547015,-0.29494378365189433,-0.5271458186858309,-0.14698703271785074,-0.37386100588092885,-0.5652091975962481,0.02555146111874477,-0.059501245494235924,-0.24727318879993185,-0.8389102673644939,-0.4412034973404389,-0.30508736921852747,-0.36302539905398656,-0.7769605289391294,-0.66995296324884,-0.5841324019555701,-0.22004906070746008,-0.7393486501621361,-0.2983404353362997,-0.01579431352971078,0.04084636061400095,2
17.15,14.3,3.875,3.825,12.55,22.25,5.875,12.175,1172.0,1004.0,211.0,226.0,797.0,1553.0,438.0,771.0,16.0,21.0,11.0,16.0,18.0,18.0,22.0,15.0,-0.546725502487695,-0.2883070270419507,-0.14376085937427893,-0.005733831202032063,-0.34619622826736696,0.2575287575305486,0.013564824466485348,-0.3120698330795604,-0.04591083268811433,-0.0693071945682367,-0.09890886281346721,0.024023947963413648,-0.23899080232869876,-0.2843710573239607,-0.09051158730048589,-0.12872348427361213,-0.2740596010894563,-0.021574808331227793,-0.06490514455856168,-0.012651256110206581,-0.5741644726127015,-0.18011104660443888,-0.3777849272612389,-0.16319018590480605,-0.571086113641244,-0.14695901818214266,0.04387678357575992,0.02574818188932262,-0.4560825580294271,-0.046802377953876505,-0.046982745060871293,0.10352207690676439,2
18.375,13.6,6.05,5.225,11.65,21.0,8.025,10.85,1296.0,911.0,355.0,382.0,748.0,1315.0,492.0,731.0,21.0,23.0,15.0,19.0,19.0,15.0,16.0,19.0,-0.6431942479732781,-0.4135642406270129,-0.3353510467820506,-0.11907176765184697,-0.4283531369242013,-0.10640684259129844,-0.10517994851243272,-0.22981490670679694,-0.36646453973847476,-0.0761834361250147,-0.3963446091473758,-0.35387857978350823,-0.7607975276431869,-0.3619830807400313,-0.2615801871322405,-0.19111377039623847,-0.1694414828946084,0.052894270003540786,-0.4117582307402626,-0.11057803538831176,-0.34032117479882124,-0.1347364383756411,-0.04642802890673444,-0.15479887952836296,-0.2013684281245995,0.01899530557578322,-0.1521506561212809,-0.1731367887943254,-0.4942517770251519,-0.2748988917561056,-0.1753743344204746,0.0845500581361105,2
16.025,12.725,5.2,5.65,14.55,19.55,7.15,13.55,1019.0,699.0,351.0,357.0,972.0,1280.0,416.0,908.0,19.0,14.0,20.0,16.0,14.0,20.0,15.0,17.0,-0.13106069472047618,-0.26904174611430476,0.08674602791084739,-0.01876039313051946,-0.07169271968580994,-0.4571150830500315,-0.29213188250851063,-0.10461459387225776,-0.36235835092018903,0.05638056604769128,-0.4184496651314789,-0.30038513710757514,-0.39258933505340504,-0.16110518323806447,-0.18234251896530582,-0.41504157286836085,-0.3863747057055741,0.010171942774313554,0.17263627783598726,0.19748235819806995,-0.2661023191378653,0.04945513562805669,-0.10086280971554003,-0.44996147619206145,-0.06725328463782203,0.03826158594416185,0.0141130640470426,-0.08942505804705776,-0.41344574003890544,0.19556413978227294,-0.09087129105856702,-0.21004849186872485,2
11.4,12.3,4.425,5.025,15.125,23.625,7.0,11.675,615.0,768.0,281.0,309.0,1018.0,1636.0,391.0,783.0,15.0,19.0,14.0,15.0,21.0,19.0,13.0,17.0,-0.13118249442385724,-0.3034670972994412,-0.15539299011045166,-0.46589265867617463,-0.2883376502444728,-0.3362307729742575,-0.3526533573399675,-0.333046423180018,-0.3739635182721366,-0.2589000785075456,-0.1674550058517613,-0.21641495896697163,-0.5012203277334762,-0.47435672032993853,-0.3100169794895246,-0.35097923156494965,-0.689126792833515,-0.5192665650883546,-0.2907106073252504,-0.10102112526099613,-0.5035626275058817,-0.17941432413280312,-0.4456402839704934,-0.28344074497582517,0.03159362389344335,-0.2906312399562548,0.11599569574152337,-0.35495808073145596,-0.48729407783979045,-0.17253150526781955,-0.21863535793603267,-0.10602899052468912,2
17.8,14.7,5.25,4.725,17.4,23.55,6.45,10.65,1242.0,943.0,335.0,288.0,1172.0,1425.0,389.0,721.0,16.0,17.0,15.0,16.0,19.0,21.0,16.0,18.0,-0.41153978963532456,-0.05777489569684453,-0.08053678147233936,-0.25593849332095203,-0.47737000524832196,-0.34055311507665326,-0.46112000795444513,-0.12274033411554304,-0.35491203499659735,-0.33224792881684834,-0.29300043360797917,-0.2691930589153548,-0.15126524032443944,-0.48217043708009977,-0.012579099062716204,-0.2894559798060845,-0.5702039441177834,-0.27686555940160834,-0.06786088378167686,-0.07491925297860695,-0.444977440415617,-0.3486424053847193,-0.25340134143003107,-0.04606757280788537,-0.19857779424060173,-0.174265695109147,0.16861043548012686,-0.05206480615888327,-0.7491507045899548,-0.5306934305545182,-0.451310924076217,-0.3906649822387462,2
19.5,15.725,5.45,4.225,13.075,22.05,5.975,11.925,1190.0,967.0,320.0,242.0,861.0,1354.0,341.0,793.0,16.0,20.0,12.0,13.0,20.0,16.0,15.0,19.0,-0.41052212995027926,-0.22694822056148592,-0.10306682956602513,-0.11348848210527823,-0.3909802898586168,-0.30931190837350925,-0.23367263730278418,-0.26111097117109205,-0.25600931828765067,-0.18625432979245254,-0.05921096901025348,-0.29453654329097784,-0.011489200376405174,-0.21957832655381315,-0.23185105715423235,-0.18944177906081958,-0.4023967813796657,-0.14428788609040372,-0.05969868856154734,-0.14762060511896932,-0.18543885821615674,-0.1295461009027768,-0.1723971889060622,0.004158649288846304,0.10240911884455213,-0.042507164780528975,-0.018461432074674874,0.09581183792204603,-0.6178529339747757,-0.2970171096307959,-0.45250521098725366,-0.4465857584534149,2
17.575,14.525,4.725,4.3,11.825,19.25,10.225,11.65,987.0,913.0,279.0,221.0,748.0,1221.0,636.0,769.0,17.0,17.0,13.0,12.0,15.0,18.0,17.0,16.0,-0.07778692761679236,-0.1031307477487344,0.1565977968528655,-0.16407778366455575,-0.606072332010634,-0.5638864832834263,-0.45828270220602374,-0.39514633616452394,-0.3692248292663602,-0.2808621807335667,-0.37212023917494386,-0.23317790986276557,0.001632119201314129,-0.09528548994981015,-0.3691926907974569,-0.2060953192754132,-0.33883577989593305,-0.27879326540208443,0.05045115180255773,0.031038491625013803,-0.13502603403986518,-0.03441246908771037,-0.24024223079000356,-0.1505662325437501,-0.2011710380307129,-0.32433669039502533,-0.12127947460473541,-0.40539713092864255,-0.508577961718992,-0.4673739469830946,-0.24308716675193198,-0.3735702757663655,2
22.55,13.875,5.05,4.15,17.5,19.975,8.15,12.2,1467.0,910.0,301.0,233.0,1139.0,1318.0,544.0,792.0,19.0,19.0,15.0,15.0,21.0,20.0,16.0,17.0,-0.4099119658776388,-0.2270224238611012,-0.13839233761738567,-0.17973111050384533,-0.510452808360898,-0.2662835670993195,-0.47637157988129614,-0.12259754400239721,-0.41398037244942415,-0.43512529851265985,-0.3563291358952118,-0.40029690439912097,-0.3485928910508111,-0.2557445448546775,-0.35760371635506694,-0.317890759286823,-0.4229583413915615,-0.19576184450458542,-0.257593765033765,-0.08789457188130624,-0.3950387434568535,-0.16388017792317627,-0.16584080593590683,-0.07686377077856121,-0.28896254691467566,-0.23681619204490312,-0.175871590684341,-0.07519827193371055,-0.3319123148165072,-0.07204634834309805,-0.057427347884147,-0.13681744007196847,2
19.6,14.1,3.475,5.4,19.8,27.45,9.075,11.35,1317.0,898.0,224.0,355.0,1343.0,1814.0,539.0,762.0,19.0,18.0,17.0,14.0,21.0,19.0,14.0,21.0,-0.37822093853808275,-0.00470508952721896,0.062412320200793396,-0.25003862422936085,-0.3393984054033818,-0.04217622339051365,-0.139362752296584,-0.22619200602297523,-0.3828967397719028,-0.2519019229184462,-0.168802639040194,-0.2430968032941186,-0.5704111883181341,-0.6121243903953666,-0.31673061365443117,-0.36745663487929897,-0.6386750879142784,-0.22365691067428278,-0.21251588872988253,-0.1251464569240571,-0.45708865091195183,-0.17715969122639635,-0.03727648523585283,-0.03403715175811336,-0.14915481207857556,-0.1906085871468571,-0.1511257355892242,-0.24769536812249818,-0.38765876964745655,-0.1546020500735543,0.057577486528524846,-0.14984690968209863,2
17.85,13.35,5.5,4.5,17.775,24.7,10.15,13.725,1254.0,778.0,377.0,265.0,1317.0,1609.0,630.0,916.0,17.0,12.0,20.0,17.0,23.0,17.0,19.0,18.0,-0.46239451562793554,-0.1320707485507695,0.0021844928723543993,-0.007101841882754808,-0.5038097735249853,-0.5709737933024114,-0.4654714951266307,-0.45243170026978524,-0.6046663352599045,-0.5337876116735994,-0.2256348707239192,-0.21939788481658623,-0.4445239324707483,-0.562878691067044,-0.4770001716119658,-0.09784128468157441,-0.8381822292323818,-0.19417093097963406,-0.03311056243332846,0.04554495586026129,-0.520412504904396,-0.0449666078905536,-0.08294971039467876,-0.001457385734714017,-0.21224879584087558,-0.10190874209461846,-0.26260981486359525,0.13522697059437855,-0.6544869710117444,-0.4571026057431365,-0.24651581632641031,-0.2594907326731864,2
16.9,12.8,5.5,5.6,18.6,25.1,9.275,14.0,1110.0,792.0,370.0,372.0,1239.0,1661.0,530.0,933.0,19.0,16.0,18.0,18.0,18.0,19.0,13.0,19.0,-0.5130602814132448,-0.4233930526066886,-0.08321741954704721,-0.015379416890048,-0.3494756402518038,-0.14055773041021147,-0.18962982207756976,-0.3158444002112201,-0.46771407716061175,-0.15179061733991406,-0.15815266791108393,-0.22064813133416036,-0.506165927504153,-0.32748675553183254,-0.24128490221996984,-0.3577140565435931,-0.6342279470730574,-0.43366305000559,-0.17831734429867532,-0.002839886286672929,-0.7051855779038779,-0.8129427186513086,-0.3429281123901853,-0.3286394360927475,-0.24560054912551263,-0.13340149049201153,-0.06744377565713648,0.12824166718217261,-0.6466017468178823,-0.3121238061154278,-0.16228669944096127,-0.11655331700401941,2
18.075,13.975,6.275,5.625,13.5,19.65,6.925,10.225,1201.0,872.0,408.0,322.0,880.0,1328.0,464.0,658.0,13.0,19.0,11.0,16.0,21.0,18.0,14.0,13.0,-0.26652541492324383,-0.4257212280448695,-0.1552171871900135,-0.35298081841145484,-0.38571571529058335,-0.16641327622131963,0.13238158859691965,0.20244693833916555,-0.5637045079757804,-0.41156836411404335,-0.21054665938740608,-0.2775252134940243,-0.2141028873525528,-0.4627834220061829,-0.2691193800669264,-0.6501094486331294,-0.4584956811850072,-0.25895409898896954,0.031991128579965174,0.15333127606949468,-0.2607418069809649,-0.08274935533007133,-0.0862821538991774,-0.15086065965042558,-0.2041113814300382,-0.2606399349309955,0.0087897115306295,-0.2543223532091715,-0.3685678288000002,0.03260213278752693,-0.10081645693686116,-0.23660068816381644,2
20.15,12.05,5.825,5.675,14.825,22.975,9.5,11.2,1265.0,856.0,409.0,348.0,1049.0,1411.0,637.0,824.0,18.0,17.0,17.0,18.0,24.0,17.0,16.0,21.0,-0.1686158225383637,-0.35680948577208493,-0.14217360783433602,-0.396067604822466,-0.49852166458539243,-0.07449154733759684,-0.3185364667218475,-0.49985687279502605,-0.586083447524036,-0.32624434033609767,-0.3016497374175831,-0.12011384505081302,-0.5428163583064833,-0.3850277339105295,-0.41271767461102327,-0.4436228764565583,-0.5378513872544198,0.17306704103031711,0.048067577040607906,-0.15871312291212303,-0.20323900690406105,0.17886119569064066,-0.1363965390034749,-0.5208441625307529,-0.41551175712219846,-0.11615590822432474,-0.09908803757736452,-0.145135875661737,-0.5191005109021712,-0.20462761235197335,0.09526527578731589,0.028796801785166894,2
22.55,17.85,6.125,6.075,16.425,24.8,11.7,12.075,1417.0,1303.0,404.0,358.0,1088.0,1673.0,797.0,752.0,15.0,23.0,18.0,14.0,20.0,19.0,18.0,16.0,-0.23008155382655054,0.008365655232560143,-0.015262867935269528,0.10968375050054609,-0.6498123148271762,-0.3031914990615174,-0.46877431903369987,-0.2756824117813403,-0.5681642665083478,-0.28129155733183225,-0.5051945009985712,-0.3912090423864987,-0.4563455013031034,-0.5613557529562029,-0.5363247743089692,-0.1463992186732628,-0.7265347229786381,-0.45116548265140577,-0.5764442462270705,-0.4860969567244607,-0.4457088412712398,-0.33318298787489536,-0.17476402952284392,-0.18420590672601414,-0.46736578678457114,-0.2580887630616027,-0.015412088102686716,0.0015986624803508783,-0.2628033462313659,-0.2608509576672032,0.03740637069681131,-0.2143698405355887,2
19.575,14.3,5.075,5.7,12.725,27.1,12.775,14.025,1332.0,897.0,339.0,333.0,857.0,1892.0,909.0,892.0,17.0,16.0,19.0,14.0,16.0,23.0,20.0,19.0,-0.7597006910204773,-0.5956586048229058,-0.5418938977334449,-0.30309207506774405,-0.5310555324327859,-0.3617452317831332,-0.5270095357861172,-0.15327361573369067,-0.46741033146337974,-0.3491902884838259,-0.46327511399035864,-0.19332708248159905,-0.19189909680815442,-0.4349630769232477,-0.4133431579807132,-0.06177130725615725,-0.3832833984289823,-0.02806628440988424,-0.15041958080717197,-0.1269350363171518,-0.5805781964607346,-0.5097525003831505,-0.37971530542259524,-0.3465301495068475,-0.5950855385357714,-0.1536294769835978,-0.30435460030189204,-0.47869330253141196,-0.45971439220709204,-0.2873209277123572,-0.32061573795924475,-0.09805344300932599,2
16.875,12.3,4.6,6.125,14.85,23.175,12.925,12.375,1121.0,686.0,267.0,321.0,918.0,1382.0,850.0,846.0,21.0,17.0,14.0,11.0,14.0,18.0,13.0,20.0,-0.42575964208554706,0.1293252679442592,0.18326665794420496,0.1256505263015855,-0.07626465855788597,-0.1818133490522086,-0.019316316030577145,-0.38720918248741193,-0.3853853754362521,-0.39377790964113085,-0.4128670793604884,-0.24563511079173572,-0.2663631520651518,-0.5176753476638297,-0.3922291035981139,-0.4691163290829571,-0.31823449567256495,-0.2227728041668448,-0.5098275630522385,-0.2624588533754145,-0.07819851887992764,-0.1859753987508966,-0.08591201950915292,-0.3910991144816559,-0.3304197130991271,0.004176225457412111,-0.12286941299286391,-0.35133613599740193,-0.49253928674976577,-0.2606626713154918,-0.4740827266132655,-0.16491329713744227,2
19.375,10.425,4.375,5.525,13.3,29.6,13.525,9.925,1354.0,643.0,296.0,333.0,794.0,1816.0,890.0,660.0,22.0,20.0,18.0,16.0,15.0,20.0,17.0,20.0,-0.48928949334455296,-0.028899542784372175,-0.3965209069331612,-0.3563061767193723,-0.33810983645876735,-0.26550191828228564,0.020940804291981856,0.058390123950039605,-0.6363076715373885,-0.46189949045011003,-0.4093231949169363,-0.14982877687209673,-0.5175100392831637,-0.5934296503153927,-0.3513948932579433,-0.1988437220713366,-0.07938806934920717,-0.06656349896346958,-0.3328162078483597,0.17633166956790236,-0.33997599553357666,-0.11634105312315976,-0.21412826070050348,-0.3562070058812468,-0.33301846650884487,-0.054804449187373774,-0.18296394288236595,-0.1902170951363406,-0.5063475798524606,-0.21149874191027535,-0.35184841641691716,-0.20985323430953018,2
22.325,16.025,4.825,6.075,19.725,28.075,12.075,12.6,1248.0,1079.0,317.0,341.0,1287.0,1973.0,759.0,785.0,14.0,18.0,18.0,14.0,20.0,16.0,17.0,17.0,0.005436949862861279,-0.17586521150402878,-0.05700802438958179,-0.07133135606662676,-0.5663885417046913,-0.2598146508245046,-0.5355282605430054,-0.2940829998624861,-0.7901405190368769,-0.6118078642246505,-0.7498729506677783,-0.4830567846444832,-0.5256831832995613,-0.6915460912893641,-0.5110124432716153,-0.5488872380908191,-0.5637339120273892,-0.5834257073066565,-0.31234278020057094,-0.17397274911856422,-0.7262727169576508,-0.39179760960193005,-0.3311309667449515,-0.19446300799659044,-0.4702357664168065,-0.3220788792182352,-0.22616563691327732,-0.3969008145521772,-0.4124440498394438,-0.49666336808717576,-0.25191230879919035,-0.24242197270170815,2
16.375,13.875,3.975,4.225,17.1,30.1,10.65,11.25,798.0,947.0,259.0,242.0,1029.0,2017.0,581.0,716.0,13.0,16.0,20.0,16.0,15.0,20.0,12.0,21.0,0.37621457382362344,-0.5884814091157772,0.12682856824056024,-0.10908396348038533,-0.5181498813020763,-0.13219786725344332,-0.41035589518382937,-0.11365835440401782,-0.48686407147519717,-0.05629199413999125,-0.14139485918142203,-0.21638925447680368,-0.2754420933129436,-0.21592997039608305,-0.19361409650843184,-0.40470423429759,-0.27389217974629365,-0.5761257135940434,-0.15647959497173028,-0.5825361722739666,-0.5879506065415003,-0.3270059593554797,-0.4434758444227256,-0.5139945087768455,-0.03679186943196379,-0.22847407648808327,-0.17048405397471667,0.17013528390355184,-0.35758117113532795,-0.20968659771735085,-0.25151669685402833,0.030394929731098776,2
17.025,8.7,3.925,4.45,15.225,26.425,7.5,10.175,1041.0,544.0,241.0,245.0,976.0,1433.0,433.0,621.0,22.0,19.0,19.0,13.0,18.0,17.0,16.0,17.0,-0.36086428398576414,-0.36268217707046096,-0.07520362826850291,-0.08672993926751939,-0.28983522151931196,-0.11345554102257542,-0.291920301846252,-0.05997289587904312,-0.6181526922738864,-0.36080696106251386,-0.20429262220071168,-0.29761097038052947,-0.13679799436535087,-0.22555049387202736,-0.03984478089383526,-0.3416611905391792,-0.3321696202390663,-0.4958391157432564,-0.18268531234648563,-0.4743668453393527,-0.1914125981634186,-0.31984419282359794,-0.20443979129622655,-0.37220686509026046,-0.014691234762834246,-0.018975144001369116,-0.24020180794220553,0.045111626382450316,-0.306905944385078,-0.17249412843931164,-0.18864707729644914,-0.17124487090191196,2
16.525,10.05,4.125,6.15,15.625,24.6,9.725,9.75,1072.0,697.0,214.0,354.0,1113.0,1495.0,592.0,652.0,18.0,19.0,10.0,14.0,20.0,15.0,20.0,18.0,-0.5731261608611358,-0.48561678510428524,-0.2677363414306851,-0.13548618207894506,-0.7063152828348119,-0.4735950268105567,-0.34650081880484196,-0.27206900991423155,-0.09272749198505634,-0.07811750596225171,-0.2698723500113898,-0.25150514201647245,-0.27419717494396734,-0.16313781260491367,-0.3433042344213526,-0.37388034587410585,-0.49449192029729916,-0.35206081872086187,-0.25319447953926577,-0.36127760989874025,-0.35420143796250136,-0.11376130117572926,0.04991789534634637,-0.11323433800472178,-0.3399687200042551,-0.29496711748579435,0.09366090861466128,0.014344818799388247,-0.4570745715320268,-0.40123101538633354,0.02960625267991046,-0.24342103323304617,2
14.375,9.675,4.525,6.375,16.3,23.375,7.825,9.9,914.0,621.0,241.0,338.0,1142.0,1509.0,524.0,611.0,13.0,17.0,15.0,10.0,22.0,13.0,15.0,16.0,-0.10313348565670893,-0.10354607523159537,0.08551738356817282,-0.43541737667279945,-0.44486697289488253,-0.21701141482631622,-0.30367477091993844,-0.20585934174739037,-0.0958916902471394,0.08629797869050448,-0.2670564617137231,-0.12032734831924405,-0.1251359816014271,-0.03730759692128691,-0.2758808382289635,-0.23359829980844055,-0.7820799295592257,-0.6039547259805135,-0.4577715010961394,-0.1698388717142127,-0.43266307991905884,-0.2612446697508304,-0.23819493762233865,-0.25275932880320195,-0.41546072927148037,-0.21756731339044655,-0.11282610871452772,-0.24744847236856704,-0.37845730018997625,-0.5262732572101121,-0.15617873847733574,-0.1569352612131418,2
15.4,14.6,4.475,6.0,13.75,21.2,6.8,7.775,996.0,807.0,265.0,333.0,831.0,1354.0,449.0,457.0,15.0,13.0,17.0,15.0,18.0,16.0,17.0,18.0,-0.20831445097052426,0.06508162684487609,-0.24350236345169438,-0.1088703506671413,-0.14430668468094054,0.0014218788759472931,-0.14525231742588435,-0.10531825625938045,-0.31759975567951737,-0.23590776097441724,-0.4888578307068273,-0.3239117822207891,-0.29763532973524354,-0.2993977827484957,-0.2033798821467423,-0.14515816016996325,-0.6185477307238322,-0.8072048254846033,-0.3737188518923392,-0.1265516634869444,-0.3511522696916968,-0.4079512911244671,-0.33677637853431597,-0.1866621498489349,-0.6724282814942548,-0.3851835010011988,-0.2994540529181387,-0.1459707235967673,-0.2949146597274635,-0.18137311713343693,0.04554388262168084,0.0035635219154534765,2
17.325,15.05,4.95,4.45,11.6,23.7,7.325,10.425,1033.0,1017.0,266.0,279.0,755.0,1465.0,425.0,694.0,16.0,21.0,12.0,18.0,17.0,17.0,14.0,20.0,-0.29934010376987324,-0.01297845648214371,0.0048418045517279774,-0.057029080770904544,-0.5091821516927635,-0.2456029014370296,-0.199388782307786,-0.13533997185727087,-0.01848626375841108,-0.44288152951404547,-0.12265901350478532,-0.3094476765973247,-0.3856112915963004,-0.329692281001758,-0.27948934914073875,-0.3217233511147645,-0.7467910371147161,-0.7017304383055017,-0.4184484504646505,-0.44807155424637307,-0.3073272120703622,-0.20878702201304292,-0.23716589162436746,-0.18009421416524127,-0.11489530504386092,-0.09477352370409074,0.008125703912240413,-0.024298978967935574,-0.43203740844441324,-0.2541185207340924,0.17772078741475503,-0.14224600619482303,2
23.525,15.2,4.6,4.35,15.925,20.125,6.975,11.725,1518.0,974.0,273.0,260.0,1092.0,1252.0,395.0,750.0,19.0,16.0,14.0,15.0,22.0,18.0,16.0,15.0,-0.5030272225548976,-0.3069571717575012,-0.23707839304788053,-0.10656618710776707,-0.47680969839290066,-0.3364441860384679,-0.4131081630222359,-0.2185310282737641,-0.16667579461979856,-0.5477192725901261,-0.2238106683386903,-0.3446548381599967,-0.4109887458986061,-0.20959587571269236,-0.46764634074144357,-0.3480517864398304,-0.7281702419219225,-0.3287590131276784,-0.010970894567344671,-0.11764360708840026,-0.36446170844243025,-0.28512684990950166,-0.146416321140772,-0.1540745828641886,-0.17915810188238349,-0.2853083703656133,-0.26459557362274044,-0.27051428390844456,-0.2960310417627164,-0.21630374299399732,-0.17564238944781785,-0.3389212323720961,2
16.225,12.425,3.425,3.475,13.275,19.55,8.15,12.05,1059.0,842.0,206.0,199.0,833.0,1322.0,519.0,708.0,18.0,20.0,10.0,14.0,17.0,23.0,19.0,20.0,-0.5214625496384753,-0.4296632070532337,-0.3648939587801819,-0.35533217646455656,-0.41089545013510276,-0.2656295688987557,-0.5417463598283777,-0.2614059879818023,-0.3976411398509913,-0.2531931375903412,-0.17997467461076885,-0.14558295103339805,-0.4578634537556834,-0.25225985248947147,-0.47654184857824844,-0.16918573012304608,-0.2561754619456594,-0.04303692175227444,-0.08839641147484059,-0.19373885087083045,-0.47338410734655334,-0.1985149015305047,0.1872052543728506,-0.02016075853685478,-0.5018220276098456,-0.20904813411445833,-0.4197198911483023,-0.12795026251790997,-0.3901437639607256,-0.05448323957755527,-0.32007494072797127,-0.47356775485118363,2
15.5,9.575,3.675,3.5,11.8,21.15,10.475,13.575,1059.0,573.0,224.0,226.0,768.0,1293.0,740.0,847.0,21.0,17.0,18.0,20.0,17.0,13.0,18.0,21.0,-0.5622711067958545,0.09174051128355656,0.3346578541796782,0.31969121473713347,-0.1608731630327032,-0.6121899546620194,-0.07698299852949181,-0.37280944166827557,-0.4504129826999136,-0.5714065485907113,-0.2628098261337907,-0.3061704169524215,-0.5918872966029292,-0.37855655218719264,-0.3520838437524395,-0.07931374835135568,-0.41444418386045817,-0.29936091587005875,-0.17643225449137223,-0.4776995141621687,-0.38643153910350775,-0.2739753265058213,-0.2396862570877643,-0.3776867262876164,-0.6129359566469104,-0.18054289755098601,-0.15881512995937655,-0.2212102748593623,-0.4526722201026037,-0.2808579774261534,-0.11897763857993063,0.03331087958232624,2
14.0,16.25,4.525,4.65,10.075,18.975,12.025,14.325,850.0,952.0,291.0,279.0,631.0,1124.0,757.0,909.0,13.0,17.0,16.0,16.0,17.0,17.0,19.0,19.0,-0.07907135623906472,-0.1883583810261807,0.11534118757512865,-0.29203255903825504,-0.19884058356067907,-0.9043461623755663,-0.1801924810582305,-0.6089049317018428,-0.3265353959652949,-0.2615957312005058,-0.045208038232817015,-0.14003459047953565,-0.31176432174395546,-0.40731818582914314,-0.06355291917683283,-0.4215659676954664,-0.4397913732486286,-0.39853502019877024,-0.3584588502364894,-0.2149083782874174,-0.34999886169186284,-0.43153473199240233,-0.4087477089315341,-0.43648412014035887,-0.34508146832386294,-0.23549332212312415,-0.2467159231716561,-0.3754976613809468,-0.4559485448443983,-0.22611641246131606,-0.20809458795431973,-0.029466400533280805,2
13.2,10.75,4.75,4.575,11.35,22.825,8.225,10.125,922.0,687.0,299.0,296.0,630.0,1504.0,490.0,650.0,19.0,17.0,15.0,17.0,11.0,18.0,15.0,16.0,-0.3911251821280256,-0.32819306595225256,0.19716681224120136,-0.07377174627416118,-0.6429284283873857,-0.331361412853636,0.2327865445508875,0.08603649694525206,-0.47805553358994674,-0.6604805579915329,-0.33960715773187305,-0.45802557584199055,-0.5418550975129195,-0.3123571823049357,-0.48926255557980575,-0.5002733786091929,-0.18356546049838676,-0.39952607409912466,-0.15406080770682065,-0.11916580526462309,-0.34874428334942686,-0.07537537079924984,-0.12429568726698033,-0.225732021146265,-0.25641308191795575,-0.45750872086785366,-0.2612501044998758,-0.35847731110366793,-0.3685928762526684,-0.05455869459108863,0.0891529487422541,0.03289599731219689,2
13.625,9.8,2.95,3.875,8.175,18.6,8.65,10.225,905.0,570.0,159.0,238.0,463.0,1101.0,541.0,671.0,17.0,16.0,13.0,15.0,16.0,17.0,17.0,19.0,-0.28694755907580805,-0.32112364372862073,0.2841910389620322,-0.13144334023134574,-0.16207294035380398,-0.39185187069622474,-0.07169418413615627,-0.15856314638227714,-0.2553321766241919,-0.3633821699467788,-0.3115142269026059,-0.36619630881607046,-0.4098523359743293,-0.23901344732196056,-0.3977445828714151,-0.5424727243890308,-0.24955739205839736,0.11021821396823364,0.07243525857098605,-0.09457836048740818,-0.2518889048979879,-0.18760394458944327,-0.13398986435031465,-0.14571405340342272,-0.420076005494584,-0.3049171796369813,-0.28212260664691596,-0.3326227373089892,-0.44224514886995253,-0.11858638815712753,-0.15006259194986005,0.01669652179765733,2
15.3,9.55,2.7,3.1,10.9,21.9,9.15,10.775,996.0,595.0,166.0,212.0,689.0,1525.0,637.0,677.0,19.0,16.0,19.0,16.0,19.0,23.0,25.0,20.0,-0.5740995003786226,-0.4604940112631978,-0.2698075171932437,-0.1689715878845847,-0.7160022191628332,-0.6540527758904536,-0.7652551055320675,-0.2524267596875491,-0.3442720634564328,-0.06161668467935729,-0.15024834449010122,-0.01679764197341027,-0.6333434694364911,-0.3583118819149923,-0.5568603907833684,-0.4295932078093764,-0.5019587189352007,-0.09428277095606345,-0.08974095629188827,-0.023423267863376816,-0.7113264740218456,-0.21312174272312426,-0.21950926994322598,-0.35067580232653794,-0.7387904574588283,-0.3410535079868045,-0.09135885256887627,-0.0951499777650929,-0.5314505201614712,-0.4628773386614928,-0.09631182983706729,-0.04326351278245369,2
19.375,9.225,3.95,3.425,12.9,25.1,10.35,7.325,1392.0,530.0,256.0,217.0,906.0,1796.0,686.0,407.0,24.0,14.0,20.0,17.0,20.0,20.0,21.0,12.0,-0.6609032647750247,-0.2819935599989925,-0.20075521195387389,-0.13048675007192856,0.05566792620769643,-0.16473446778715467,0.0041155344117043335,-0.1435114198912489,-0.560849195274031,-0.4319238106387238,-0.34483732471119366,-0.22622805934505177,-0.46496419034437625,-0.3263804551380423,-0.21706989120221146,-0.21437159593913688,-0.6695444709487567,-0.16451290524604567,-0.245446771003524,-0.22445627933537132,-0.7488654557173875,-0.30327730952735477,-0.2697889345462591,-0.2752785499184711,-0.5807788177812484,-0.36293630136407823,-0.269451705088057,0.017225822576884736,-0.016361768316068382,-0.1237442526533839,-0.0184403794795494,-0.055234092630288785,2
16.375,13.3,3.5,4.525,16.5,24.025,7.875,7.225,1106.0,803.0,235.0,228.0,1120.0,1682.0,502.0,461.0,18.0,16.0,19.0,13.0,20.0,20.0,14.0,15.0,-0.7500556955325512,-0.5985619137742368,-0.35401746039944815,-0.12421273472108696,-0.3512256712975786,-0.01843951543818818,-0.20273951959879652,-0.24553895149403027,-0.31902824238320976,-0.05575094038002909,-0.07606465488452323,-0.1493648226362511,-0.1026751756080289,-0.41220648552014183,-0.12677603426396922,-0.47405718295556953,-0.9519203845135262,-0.8463463729805544,-0.605553665997241,-0.28467342792994665,-0.8215922033699244,-0.48920588715480723,-0.4895309116162848,-0.3520050396053595,-0.2866226291038864,0.16750860464412232,-0.30319766409919047,-0.30320982780676986,-0.32139164782747887,-0.043504263093864994,0.007911500025082542,-0.351934987880607,2
11.875,9.2,3.4,3.7,12.9,16.275,6.375,7.25,831.0,507.0,200.0,219.0,803.0,1085.0,404.0,434.0,19.0,15.0,15.0,19.0,14.0,17.0,15.0,14.0,-0.6794328501389932,-0.5004537520240949,-0.25898201077306515,0.013410039296892818,-0.4233484923134802,-0.26322595186143904,-0.24058722116619627,-0.19982200018333146,-0.4171326159216578,-0.1394490605371578,-0.12326978413585311,-0.353705273970341,-0.15493216708839594,-0.3273729973636986,0.048493027837436045,-0.4123364127149234,-0.4479128726434486,-0.1298433328545003,-0.29707009480811913,-0.06427407970538844,-0.43754263047755887,0.008629310518093647,0.029783205290363858,0.08452671556665521,-0.4455475789210547,-0.5122584463817638,-0.40609369636696013,-0.4284578118606164,-0.40668866446351337,-0.2555108131827987,-0.1136868530166225,-0.2398306863495644,2
12.075,6.2,2.85,4.7,13.325,14.45,6.15,7.85,737.0,363.0,174.0,270.0,845.0,878.0,342.0,473.0,20.0,18.0,19.0,13.0,18.0,13.0,12.0,15.0,-0.3582987292776182,-0.3333980996281197,-0.09724906809468131,-0.11631440305502966,-0.34400871576166947,-0.6228847186469016,-0.06110775521845294,-0.20429035775896764,-0.1602034970823401,0.13045471503119654,0.11505096805995675,-0.19378841363483118,-0.2903023205032176,-0.13605503099649938,-0.2860400463044023,-0.1516306371217237,-0.5677378874722958,-0.45686548777571573,-0.0554021237639066,-0.16853749876539423,-0.2003413992658601,-0.2248635311990731,-0.08176431416858071,-0.06571794690514679,-0.2050653771587494,-0.31714893542308387,-0.24802375047694467,-0.352212476225537,-0.38575714025771385,-0.1960785366054799,-0.023887864136999493,-0.12989159806390094,2
17.9,9.5,3.7,4.475,11.125,16.8,5.95,10.05,1032.0,561.0,235.0,288.0,766.0,1017.0,325.0,698.0,16.0,15.0,19.0,16.0,19.0,17.0,15.0,21.0,-0.49986447257842925,-0.7405145121184795,-0.28495337083761724,-0.42898410497006423,-0.04819175594137284,-0.41973455223010553,0.13607062122117602,-0.31102518001361057,-0.23424945652117868,-0.014638892652750675,0.18766187491532574,-0.32410299944034876,-0.4133182786075308,-0.16024158947639247,-0.4311830838731532,-0.1666806833628997,-0.47724062072397055,-0.1127162123480116,-0.18947810730176262,-0.3689320376096756,-0.2567707152617729,-0.02286487483589562,0.11728235539154316,-0.34134428463814265,-0.1549856302534538,-0.41255396257985666,-0.09091986948784052,-0.28811500370452914,-0.6233108525033492,-0.3252415789763156,-0.3304936530643162,-0.38960169941050465,2
10.625,4.8,2.325,3.4,8.1,11.325,2.875,3.075,642.0,243.0,122.0,160.0,515.0,599.0,170.0,201.0,18.0,11.0,10.0,11.0,17.0,15.0,15.0,14.0,-0.6156250345695296,-0.4562152188053115,-0.26819129561759325,-0.25533933806160813,-0.09852199436283418,-0.05366502682522967,-0.09038235186198079,-0.10741301518886062,-0.144200364498946,-0.14948838905261722,-0.26223255684109925,-0.3014750798447559,-0.14427767745412343,-0.2382041633566732,-0.29749208111669945,-0.19429324731108796,-0.30644799784845234,-0.2009095565413284,-0.17521749000751835,-0.15093377338237352,-0.14368700076508448,-0.3556874037352419,-0.038660708971696746,-0.3069783196924491,-0.32030046258501255,-0.18880183236426587,-0.08732930570471235,-0.13027554561592103,-0.5113235481885434,0.001444142208610626,-0.12704960045343067,-0.02542975157382679,2
17.875,11.05,2.9,4.325,14.0,25.35,8.625,9.875,1250.0,619.0,172.0,280.0,895.0,1703.0,594.0,685.0,21.0,14.0,15.0,19.0,19.0,19.0,19.0,15.0,-0.9626447769936392,-0.8583049281370302,-0.8756554632887168,-0.173740436113294,-0.5749704449568654,-0.7147281734240178,-0.6795844539010979,-0.37707251875562076,-0.39946872636384434,0.145041169889333,-0.038981180675647514,-0.20032027559851737,-0.32775218051303723,-0.226144311638908,-0.06581341052662942,0.06091450851216655,-0.38551957305413725,-0.5189767959263603,-0.07057809929464044,0.016567127254257887,-0.6554539151105024,-0.4783536413156057,-0.19932932914810478,0.009562551152189595,-0.6475101663460827,-0.3896256548918435,-0.11948220416834138,-0.09251079659800993,-0.7572261025897757,-0.5398568646329542,-0.8030200504295975,-0.37222179418361306,2
8.75,6.575,3.525,5.45,11.75,18.25,5.525,6.225,608.0,403.0,215.0,328.0,701.0,935.0,343.0,413.0,15.0,13.0,15.0,13.0,16.0,16.0,16.0,17.0,-0.542659809317486,-0.3191103149351401,-0.1988871336313074,0.19314354116420515,-0.3902268183527347,-0.36101792664678267,-0.199348057810743,0.06131531013103926,-0.2805908613848293,-0.24195324364247137,-0.26164037688272673,-0.562991389113798,-0.2390054839773938,-0.4640057575632209,-0.20758192700725214,-0.5114564192168196,-0.3824158889069676,-0.31744517684771073,-0.23004501985801787,-0.26567628105178365,-0.17587413499752977,-0.4397062986648955,-0.20983722977796498,-0.0018274988823949244,-0.45151394195916017,-0.3530293487697329,-0.2888996990742219,0.11311062163956379,-0.38255246396536285,-0.1855285668315452,0.03796903029065617,0.2810630967140727,2
5.975,8.375,3.125,4.75,9.075,17.425,4.825,7.225,360.0,602.0,184.0,282.0,591.0,1149.0,269.0,452.0,15.0,14.0,17.0,18.0,20.0,22.0,13.0,19.0,-0.1562108029495304,-0.20397257749444533,-0.4987361008718363,-0.10667368155265147,-0.539653285799066,-0.29965342274765916,-0.43432336695397256,-0.15945806094554,-0.36644849417064723,-0.5470863498229017,-0.26646212423922944,-0.4886530900290073,-0.7088589994496044,-0.8379107836095937,-0.6315061736439812,-0.5347698324639034,-0.49283477228629224,-0.4340770314281139,-0.2703976246285222,-0.3458609222646099,-0.47033469088874386,-0.17429682795124102,-0.1960941990310456,-0.09920218949981878,0.014582660554196441,-0.3020567573180606,0.05523547043732392,-0.3325010826933033,-0.2934763171453494,-0.2655113211420089,-0.28712790460068144,-0.3724786444799381,2
5.9,7.675,3.175,3.65,10.05,13.475,4.6,7.1,335.0,485.0,196.0,213.0,698.0,944.0,284.0,392.0,18.0,18.0,14.0,15.0,19.0,19.0,18.0,11.0,0.010490063656539674,-0.04242948121213234,-0.1644378566085882,-0.0371569194116878,-0.08054414570744803,-0.0913253513268562,-0.3217298703049282,0.027555894104273827,-0.35060296316379524,-0.2675820747848826,-0.5413462082030154,-0.014442650635418056,-0.47360556223452394,-0.3132567945348557,-0.42607473061700896,-0.30617436178623664,-0.29974970473713924,0.12079181474146412,-0.1869253576750647,-0.09388053932464772,-0.5934121069218423,-0.17024647865161333,-0.17020093679923898,-0.1884136009598443,-0.18041370408663568,-0.272326036979073,-0.06900552386317681,-0.2878434160896844,-0.2538941225938992,-0.3791827104622155,-0.24506071402728233,-0.17962238640728537,2
16.85,15.7,5.225,4.75,10.675,16.2,6.675,8.0,1136.0,1011.0,350.0,241.0,682.0,1006.0,455.0,511.0,20.0,16.0,15.0,13.0,19.0,14.0,20.0,17.0,-0.7879727221444003,-0.610991796453903,-0.14272824549528265,0.03682007968963873,-0.4427040395972444,-0.6195485141005452,-0.1415834056008514,-0.06607732491634476,-0.4772269024968663,-0.3761145444871382,-0.2706130754783111,-0.1757476889494962,0.045491173826223225,-0.20698985862443822,-0.28975902847200913,0.034028029550977806,-0.316564759305855,-0.08400069221466089,-0.20131908649588873,-0.16019731575025878,-0.302198604228269,-0.12897901204090703,-0.16091470341200576,-0.012354828979653405,-0.32344143853681445,0.05952997068257279,-0.18754285055062275,-0.2501013744039324,-0.3929889192766542,-0.21906592935944522,-0.04523760141790431,0.0983385613494602,2
19.325,16.775,5.425,5.625,13.95,23.625,7.475,9.9,1299.0,1008.0,343.0,363.0,949.0,1503.0,540.0,634.0,17.0,17.0,17.0,19.0,17.0,17.0,21.0,18.0,-0.4923329376414747,-0.39510040007937225,-0.1133014384795212,-0.137938571379309,-0.4761631075501487,-0.8075397360258103,-0.18206781938993533,-0.14239254751069755,-0.29959024669475526,-0.16044415318430877,-0.1759859880257065,0.07448289357079857,-0.3770465446995454,-0.12029394950255827,-0.32859828325498996,-0.11682974568277474,-0.23295727750027206,-0.24113672780333223,0.11102310157450056,-0.3125353759125733,-0.3569504389348429,-0.3982952323680834,-0.1280889554629382,-0.24037949462504912,-0.6499224248510101,-0.2855386524230281,-0.35863926518400724,-0.34115243336704504,-0.35204470561634416,-0.3683509391859214,0.08307556307102684,-0.11282260346943623,2
13.075,8.325,3.45,4.475,14.95,19.625,5.35,8.225,930.0,500.0,185.0,277.0,1039.0,1349.0,331.0,491.0,20.0,16.0,11.0,16.0,22.0,18.0,13.0,16.0,-0.5755221779752906,-0.17194420121771156,-0.17211183633482244,-0.21059324260371529,-0.16011083979334895,-0.4262070815607059,-0.3147624321006623,0.045221487548187105,-0.2738829944005273,-0.04197666135413135,-0.4768459571718352,-0.4447569455183725,-0.5687764948150783,-0.4751601490048193,-0.5143537541915085,-0.39385973804670243,-0.6420749823697796,-0.5678028894330166,-0.33242047226404065,-0.23432530982291205,-0.6262871996885494,-0.5761059078787321,-0.45797243029626383,-0.22115553607613972,-0.22057541333382386,-0.33020115713539655,-0.22176633084427946,-0.20030163877810755,-0.4302966633059033,-0.34380897014075895,-0.30722673295478226,-0.31902971258416524,2
16.2,15.5,4.7,5.125,15.025,18.225,5.775,9.55,1110.0,1019.0,309.0,339.0,1031.0,1249.0,399.0,632.0,21.0,21.0,18.0,18.0,19.0,20.0,16.0,20.0,-0.4864557445322234,-0.008201115336452703,-0.04798747308417543,-0.3470797394321192,-0.7026165854649622,-0.564547439638683,-0.3503837239217847,-0.15805596462547306,-0.35492011009193775,-0.11107875894715334,-0.05502473227449636,-0.22826634900162002,-0.6399658681190755,-0.5844179285059959,-0.5185436969233288,-0.5610909091063536,-0.5982988998912997,-0.37703231621239774,-0.14736346807801526,-0.11447250022865539,-0.581132475439131,-0.36525371643236154,-0.20896782542273365,-0.1171827543436858,-0.33845001205692427,-0.14866011798157436,-0.11112787487831562,0.053457590236798413,-0.3841099558772727,-0.10673559704410529,-0.26843285007911233,-0.22799865413009812,2
12.5,14.3,4.4,4.425,9.8,17.3,5.95,9.5,842.0,925.0,287.0,312.0,622.0,1242.0,400.0,605.0,22.0,17.0,16.0,20.0,17.0,19.0,15.0,16.0,-0.4827463200339357,-0.23035155500898916,-0.2596878435169672,-0.49651469974721724,-0.2800173793090239,-0.20745688285226382,-0.057705973473042994,-0.09342239884060095,-0.4128701436249236,-0.33917915510279734,-0.24017961786038022,-0.40333425680772067,-0.5221352235095442,-0.27261076167403886,-0.3691559275633253,-0.35246367676282225,-0.4943050516618333,-0.21286804932736628,-0.4020622772164797,-0.363273335093992,-0.5483842179599442,-0.2974559358933039,-0.07292376551845545,-0.2933919120221164,-0.5925715111550197,-0.4760071500559908,-0.14016772305204708,-0.2997353478285005,-0.18505765562739543,0.13080094758700878,0.044432133117037226,-0.2643145592821906,2
9.1,8.9,3.075,3.4,13.225,17.9,7.275,7.425,568.0,526.0,188.0,233.0,886.0,1171.0,484.0,456.0,13.0,17.0,12.0,16.0,21.0,19.0,20.0,15.0,-0.4190219329106032,-0.28251182583907497,-0.18357234703111858,-0.1481989884920642,0.006172106564474287,-0.3869867389954477,-0.12691111915886555,-0.22830879044804617,-0.2951945158467516,-0.09653808213713719,0.11084147420012942,0.07564350759426725,-0.5779634466318687,-0.10678663624740645,-0.2661459142855969,-0.32498431518295373,-0.5725610570701796,-0.519957184669959,-0.2685147619424655,-0.34698916049199185,-0.7392964343104576,-0.620606525751032,-0.4156925413816789,-0.45125658883171677,-0.5939466173132785,-0.4933693179286512,-0.40262353652622596,-0.5091611893768397,-0.376219262421343,-0.3531702584338464,-0.319112191458616,-0.2517621213649075,2
9.975,7.8,3.3,4.225,8.875,17.125,5.875,6.4,661.0,521.0,217.0,242.0,572.0,1183.0,384.0,381.0,21.0,17.0,19.0,12.0,16.0,22.0,17.0,17.0,-0.2360346814347376,0.02355511416163866,-0.3601731326799443,-0.19680698361101284,-0.6386602520590855,-0.5567287238202762,-0.2355045725895407,-0.2582601311022564,-0.654231893177707,-0.17189841939274456,0.07289035609307802,0.005925092210480567,-0.12925119761722645,0.08272950902602125,-0.16069469311526144,-0.4861669657978109,-0.3607621406888723,-0.4953377790517046,0.07364617517106088,-0.241532920493051,-0.3851091433670485,-0.07611645516468298,-0.0053782438897032984,-0.4539960114577905,-0.3756418118851408,-0.03496874368731294,-0.3320045858405997,-0.3565150478373388,-0.3746195400124806,-0.09371042301402287,0.08063221617703971,-0.030170965168323176,2
11.45,15.8,4.45,6.075,13.825,22.775,8.525,12.9,840.0,1030.0,288.0,378.0,867.0,1361.0,524.0,846.0,21.0,17.0,14.0,17.0,18.0,20.0,18.0,18.0,-0.5712498705544812,-0.2896071968173067,-0.09138752625910732,0.026948646133083447,-0.5338913278750248,-0.4106751208598,-0.3648479177375699,-0.38041951912811295,-0.3831736660640218,-0.3286811057580793,-0.099290443315425,-0.1620423175931372,-0.5740930523689874,-0.3744225500781408,-0.28747352391975756,-0.13287204756983606,-0.605755624914916,-0.5023547370465342,-0.3423109497191496,-0.31348964593312434,-0.3645131337501402,-0.19202038556833648,-0.28058207877023567,-0.44386108193626694,-0.2712168984690924,-0.37279863988749506,-0.07331161401570117,-0.3130375999380751,-0.311392195469138,-0.30194663982536835,0.009211215110619562,-0.3393313902856815,2
14.625,19.775,5.225,5.25,15.225,23.425,9.575,15.825,1040.0,1228.0,304.0,321.0,901.0,1465.0,656.0,976.0,21.0,15.0,13.0,13.0,16.0,18.0,17.0,18.0,-0.49197495182467293,-0.2964450273727639,0.1681413429236528,-0.09840981634157416,-0.4100888141665525,-0.30884491509251016,-0.3015653303893018,-0.2613908018243301,-0.2115057181779833,-0.263738969666634,-0.3649212762365646,-0.14730481165108625,-0.52621590762202,-0.5039103974305046,-0.39270905790198896,-0.34829399620653506,-0.32531301473553664,-0.018327374941748745,-0.0026765567932949237,-0.12189573793654608,-0.5264357979015011,-0.39416183558091605,-0.2191166821232231,-0.18781377461532067,-0.4345399811947951,-0.10191147611330521,0.18939150750179554,0.03484214671556073,-0.36535809110397743,-0.33559337831276687,-0.34496051843882825,-0.07190645659797411,2
11.8,10.6,4.45,5.3,12.725,20.3,8.45,12.075,796.0,638.0,265.0,328.0,790.0,1334.0,530.0,759.0,16.0,18.0,12.0,17.0,19.0,22.0,21.0,15.0,-0.3638104210880976,-0.3672403324325872,-0.06790233066021646,-0.2622974415807212,-0.2171133605829662,-0.00048144180778912643,0.02073430920900455,-0.17574261798467888,-0.36579864714343147,-0.13900129231984512,-0.24850904098442914,-0.31811598606161823,-0.5948479990945885,-0.5064706844426096,-0.41078497994606494,-0.5054807565831707,-0.2910533640289751,-0.10331867628963876,-0.34580288638245715,-0.03983777784593955,-0.636674541096039,-0.3396146688253954,-0.5196538110120853,-0.17538716774152727,-0.6360992348448767,-0.3437758361359976,-0.21959892162915137,-0.04557055635935005,-0.41947332663029435,-0.30917096411443407,-0.4846025506155432,-0.12406184576689339,2
