0,1,2,3,4,5,6,7,8,9,10,11,12,13,14,15,16,17,18,19,20,21,22,23,24,25,26,27,28,29,30,31,32,33,34,35,36,37,38,39,40,41,42,43,44,45,46,47,48,49,50,51,52,53,54,55,Gesture
17.55,9.725,4.9,6.825,13.85,10.925,27.9,13.025,1238.0,597.0,300.0,420.0,977.0,759.0,1924.0,825.0,20.0,14.0,17.0,15.0,22.0,21.0,19.0,17.0,-0.915450837426418,-0.6959068377994032,-0.5468517779842311,-0.39721118927082427,-0.43937106532569387,-0.447727119334994,-0.24033033240996474,-0.31571605742226805,-0.45427678736818644,-0.25172052727531496,0.06815262287130634,-0.11765022711996648,-0.20807143263515562,-0.23274713966939647,-0.08920779081007421,-0.3444982224573921,-0.7744461899889478,-0.5015945664053858,-0.10240950552298975,-0.2586499465944497,-0.4244513248737813,-0.11742699400466708,-0.21516391941173557,-0.24331663624512812,-0.7296612914222429,-0.5787954161409341,-0.4886804643299669,-0.07871656148350291,-0.4909468741749011,-0.18931409161079032,-0.26487447059691915,-0.24058310828837978,0
12.05,12.925,6.75,4.95,8.125,11.4,22.25,13.175,760.0,866.0,456.0,275.0,549.0,748.0,1203.0,769.0,20.0,18.0,22.0,16.0,18.0,19.0,17.0,19.0,-0.7116760440468115,-0.533489074383199,-0.6221443748045762,-0.3410342876440489,-0.482203703420814,-0.09250803617717478,-0.2235708387899838,-0.30494959797682747,-0.7090669782466629,-0.321692542363162,-0.23684277284193872,-0.06623126940210676,-0.26040929193750717,-0.03763235308528842,-0.20606169139962544,-0.2682725141223167,-0.5981213113778573,-0.33943582406248957,-0.2288367957259761,-0.3531542813086931,-0.4377541281654454,-0.2507364224925673,-0.2511275608093245,-0.38091353643032977,-0.1642464523911082,-0.2535196220724066,-0.07931381732559081,-0.03663745894424056,-0.33045092132749676,0.04366244831736925,-0.2591229867655883,-0.312621250328426,0
11.05,10.65,6.675,6.825,8.3,11.2,27.725,15.925,756.0,687.0,426.0,429.0,521.0,704.0,1758.0,995.0,22.0,17.0,17.0,16.0,19.0,17.0,21.0,18.0,-0.7372233705891853,-0.4317656126597152,-0.19427314096331372,-0.13431021302232293,-0.6829431426412021,-0.5454596093577626,-0.4452987493019184,-0.28033645312756855,-0.5762163270740622,-0.4070071057690973,-0.5485730537334466,-0.39817305630700445,-0.4714987247387746,-0.23322230397415525,-0.3654146044388212,-0.3200146053279627,-0.3972068033601232,-0.11759048779672698,-0.3065248460161789,-0.2921304597840301,-0.5077341763552405,-0.3127372202827848,-0.43992561673912384,-0.2871635292906122,-0.3892528858724924,-0.23046205620370766,-0.5439730391922228,-0.2399276638576365,-0.5373389115603558,-0.34803718280092794,-0.5205444253361782,-0.19120913758305025,0
10.925,9.7,4.725,9.375,11.75,11.175,28.45,11.625,697.0,660.0,338.0,639.0,853.0,651.0,1727.0,664.0,17.0,15.0,24.0,22.0,24.0,19.0,16.0,13.0,-0.642878261006237,-0.5439812333492372,-0.303632594879338,-0.23224018996006163,-0.47487299020364426,-0.20732477535464305,-0.2893115540211001,-0.23916279315586092,-0.7268680887718907,-0.2789608921448317,-0.28139095620475557,-0.3810690442774273,-0.7334011988315252,-0.5560192828641713,-0.4280904285912304,-0.4851474437174076,-0.9552560112885053,-0.6646012605084108,-0.33513452191237264,-0.2108530737767864,-0.24730378976938844,-0.0977389227293775,-0.2544165248754225,-0.03731204415277065,-0.3145282385279306,-0.3853741395940642,-0.32784769977826844,-0.34159032894138763,-0.06695258204933514,-0.152782873023582,-0.478040822461781,0.07353419450522927,0
17.55,7.925,3.45,8.675,15.675,9.95,26.75,13.65,1153.0,530.0,231.0,586.0,1052.0,655.0,1600.0,883.0,18.0,16.0,16.0,14.0,21.0,18.0,15.0,21.0,-0.6867749786893549,-0.46516770446617545,-0.4688926211027455,-0.24392459770356825,-0.5549264448035575,-0.27061179528795193,-0.3192831690682244,-0.04023375037940661,-0.6162373100921699,-0.11905530358226228,-0.07395993004784689,-0.19488084991646615,-0.7403492598718949,-0.508497825946879,-0.45424715051091236,-0.49587947599290705,-0.8188299321081293,-0.6699146908021021,-0.2964637844767619,-0.2911269881248421,-0.29816079615186475,-0.02490365448904836,-0.35019077084361144,-0.26346646893060355,-0.4162193971650263,-0.16251305076484493,-0.40857660502587817,-0.327894132725464,-0.4160404453785527,-0.22136741106768276,-0.2929961951209788,-0.2991626621302405,0
17.825,8.35,4.325,6.85,14.15,9.675,29.275,12.375,1186.0,477.0,287.0,469.0,940.0,573.0,1969.0,778.0,19.0,14.0,16.0,23.0,21.0,16.0,20.0,16.0,-0.7390790945224578,-0.6388612821482458,-0.371957826197039,-0.2808427272010711,-0.440072976826158,-0.6336746659176862,-0.45267818926217535,-0.17899697019482252,-0.4152726309794377,-0.39747164680968416,-0.14886846146221255,-0.26932824562668956,-0.5670978633909847,-0.23143779149898333,-0.2939790528501354,-0.3286924999992407,-0.6180045553263844,-0.4708636532459579,-0.2897819286087176,-0.20329743660693247,-0.43634723837308353,-0.2804321695634947,-0.01684034974192153,0.13578238291815525,-0.7623476901863686,-0.6511891371253513,-0.5597709322455853,-0.31361469108652834,-0.5020432442960937,-0.20712854022235352,-0.20791097259424407,-0.07662736883848316,0
15.5,17.425,9.125,8.975,12.125,11.95,32.65,13.725,1017.0,1256.0,579.0,556.0,820.0,757.0,2111.0,921.0,20.0,20.0,15.0,17.0,17.0,18.0,20.0,19.0,-0.33060848394493714,-0.6190061452888915,-0.3290016539401452,-0.3677314553259895,-0.8489013392618998,-0.17255943213395705,0.026834831477742477,-0.12225300724375099,-0.5606492535110608,-0.21973498798061006,-0.2677572863998267,-0.35277037618907187,-0.476599021021454,-0.5377507715503502,-0.4633529400178079,-0.4718989162742619,-0.6658887618281657,-0.4567397918660147,-0.18260060053032673,-0.06297158371442267,-0.32563080504677494,-0.34192298250177505,-0.15754564935080298,-0.47232787507372853,-0.41521680959039825,-0.3080039940926264,-0.33664644263345317,-0.02376870144100074,-0.48985943365062684,-0.20836579926274248,-0.5014838495487947,-0.030839599132821454,0
17.35,12.1,8.9,13.075,11.225,16.25,39.35,13.675,1140.0,737.0,563.0,803.0,749.0,1083.0,2399.0,886.0,19.0,19.0,19.0,19.0,21.0,16.0,16.0,16.0,-0.39026161136804366,-0.8023027079015854,-0.3441946236798086,-0.3659484272476563,-0.08864029287340325,-0.03304823624835881,-0.11852895321837544,-0.28447004509196266,-0.25840058628440726,-0.5543142610001898,0.011730823900936124,-0.5549776946412293,-0.5033933138939702,-0.5865885791757948,-0.47027590781589834,-0.5737274307360565,-0.6785172713714568,-0.43033716130803545,-0.33385791494281614,-0.15346105722069064,-0.43501649356986327,-0.5264085523791919,-0.4184144585145598,-0.5066309185067998,-0.47245509603085006,-0.5744660384572878,-0.3664731438604968,-0.27414808297355486,-0.5200698826758973,-0.09305103184085843,-0.5181612005380124,-0.3262893372785017,0
9.925,7.9,5.525,6.65,7.875,12.3,29.65,15.55,641.0,513.0,339.0,416.0,570.0,733.0,1655.0,1036.0,18.0,18.0,15.0,19.0,22.0,19.0,14.0,19.0,-0.5546718937084772,-0.5696330385963215,-0.46118700460778844,-0.1972594951492014,-0.3050535294835936,-0.10013389567244345,-0.10838987959349146,-0.13504469475210665,-0.23249693486617493,-0.21028048324361337,0.15087620472230082,-0.35120203461234817,-0.4035686102764802,-0.2176279928623797,-0.22626530222836225,-0.16581828719653374,-0.8025675480476576,-0.34946428692420756,0.05786369407810575,-0.1269393849574434,-0.3529308692823417,-0.2683035221473293,-0.43020607665722893,0.00553908923647023,-0.563775333771985,-0.749501821076744,-0.5572472464038747,-0.513571966502247,-0.8061411259631095,-0.6013645945230487,-0.6457632798220871,-0.3961033409769726,0
12.175,6.225,4.225,6.4,9.35,11.65,31.875,14.175,846.0,398.0,259.0,437.0,707.0,622.0,2141.0,958.0,17.0,17.0,22.0,13.0,23.0,16.0,23.0,21.0,-0.6279896987620475,-0.3310095214564471,-0.3250628412838102,-0.3029304595300047,-0.5331774053973455,-0.3362255583710697,-0.35477020990307034,-0.21938555404939178,-0.5105130638625498,-0.37870988859722327,-0.20291196754371238,-0.12486489710006451,-0.4739150887473157,-0.29740021122753185,-0.45279787017551293,-0.41618609659569733,-0.6802174662403583,0.017190769332338467,-0.16259640570116526,-0.4874466719975449,-0.5011566489545667,-0.49781232359275285,-0.5582448578727965,-0.5010253494867385,-0.8650484070401033,-0.7599193932088073,-0.7943319306550626,-0.5230192900361701,-0.7563429952093668,-0.4562293593592535,-0.30669625645769594,-0.22464097880250916,0
12.35,4.65,5.15,8.0,8.9,8.5,27.175,9.875,800.0,279.0,342.0,604.0,605.0,539.0,1806.0,618.0,13.0,16.0,20.0,21.0,17.0,18.0,13.0,20.0,-0.40711091123389953,-0.4247083197243188,-0.31359533003345175,-0.14710624851776255,-0.4005625369173657,-0.33101467753248565,-0.11831058659935745,-0.02240871139418344,-0.7614593550216133,-0.4244372449683387,-0.1717997755046728,-0.08842296803671408,-0.5512796094545402,-0.16043702062972284,-0.33308753980864364,-0.23975367616781632,-0.6570651079141607,-0.2219997355522218,0.25916181485050466,0.0273159413056042,-0.2538082541498672,-0.0913191231412279,-0.14152427056289865,-0.09868132163868042,-0.6904116289573405,-0.5303573464417984,-0.5423838695028357,-0.46008845660406145,-0.4165513408973593,-0.24367916051442376,-0.11931049716417141,-0.159728806562548,0
14.55,4.925,3.4,6.025,8.125,11.475,26.225,12.45,1080.0,318.0,212.0,421.0,536.0,748.0,1604.0,784.0,22.0,16.0,16.0,15.0,18.0,18.0,14.0,16.0,-0.7812730651333681,-0.5523811983148001,-0.3838750521834808,-0.3384631628645634,-0.4393433321197136,-0.503516006440745,-0.27395776160662366,-0.3610699514369944,-0.3219556064818423,0.04709482615121393,-0.3584564475284072,-0.40479671337162926,-0.5705887710651355,-0.32042510963755894,-0.3950168796369159,-0.2539195450670654,-0.692463346415837,-0.4048434563173985,-0.05324565351058327,0.14527029790720378,-0.3578797853174543,-0.22151523676609974,-0.15951276622807717,-0.1647458806371772,-0.48130048870942066,-0.4198022498576037,-0.388926728991629,-0.3727308171875055,-0.35710908165286653,-0.23517567882682486,-0.3051846335817325,-0.4380994358386484,0
13.75,4.8,3.725,7.825,11.875,11.35,29.925,10.45,880.0,313.0,224.0,485.0,774.0,635.0,1900.0,687.0,15.0,14.0,12.0,18.0,20.0,13.0,18.0,19.0,-0.5022425578543446,-0.2735260821309893,-0.24543081091705948,-0.3563243651200608,-0.5704045226576983,-0.5601403252765575,-0.24899404073394943,-0.29204924991552106,-0.42841285088000636,-0.3174059665452282,-0.04530371251978459,-0.041535660378543796,-0.3324200201247421,-0.34713426317085133,-0.2204874411170665,-0.16210762893036498,-1.1545828584544946,-1.1619448506849044,-0.7513976986667863,-0.33950950254075535,0.04552505156509188,-0.47823449171799043,-0.038218802903412195,-0.3199033577968554,-0.670634088126357,-0.6842749656782662,-0.6003772221485364,-0.5222892690036879,-0.33612523121868176,-0.12413488269116751,-0.1606527170050705,-0.34421096437621307,0
12.025,3.9,2.575,7.625,8.75,9.9,22.825,11.85,811.0,260.0,154.0,488.0,582.0,656.0,1452.0,852.0,21.0,17.0,12.0,20.0,23.0,17.0,14.0,22.0,-0.769422953298735,-0.5613959713401642,-0.6258036498559073,-0.4569029225510538,-0.6818168387620747,-0.6378150209125635,-0.1600290604334933,-0.13824896778653248,-0.19715468635117522,-0.16856145870557152,-0.21667464589701563,-0.15639155761853196,-0.3721205859966974,-0.24284285638745928,-0.25634174888307754,-0.13009761181261795,-0.6569466160584329,-0.5483652148991733,-0.14027042649140709,-0.2310579035999885,-0.3047865562979565,-0.12829736174019074,-0.2209307979011061,-0.06968437051780829,-0.5462810459340603,-0.5467058282810353,-0.2113427491611929,-0.13329569516569628,-0.7221144066619511,0.029743587322351283,0.23327269167175146,0.034273150200994244,0
11.45,2.7,3.1,8.2,12.55,10.3,29.075,13.475,779.0,187.0,190.0,548.0,796.0,577.0,1747.0,945.0,19.0,15.0,17.0,20.0,19.0,17.0,14.0,21.0,-0.81189871325556,-0.586095695756193,-0.4474520035902387,-0.340625331160881,-0.7387966778625344,-0.17707904699458998,0.28203702276949144,0.2566627412707246,-0.3250407882246156,-0.09584814236902756,-0.12206702245051432,-0.19626705716601955,-0.5481523540206923,-0.3925126235099281,-0.4509092649566808,-0.31007048010752486,-0.6712196117162496,-0.4813370125441941,-0.4895710816507896,-0.27238151387573695,-0.16552974837889042,-0.2502782168677875,-0.3145191906582469,-0.294885598613749,-0.5785825348578877,-0.6845638037761728,-0.4743007515856523,-0.5089898405143434,-0.6878057356832632,-0.14336086793306593,0.014591242789836851,-0.12357010239217761,0
7.55,3.75,3.525,10.1,16.225,12.15,29.075,12.95,475.0,252.0,193.0,613.0,1107.0,672.0,1973.0,807.0,17.0,17.0,10.0,12.0,20.0,16.0,20.0,20.0,-0.29813210427660825,-0.14590821335730025,-0.23862425814589763,-0.22469756821195142,-0.19582538144333295,-0.31482530990048047,0.09750363888803337,-0.1883283095156369,0.04899358151022558,-0.2015646584286636,0.012561077362552676,-0.3269468884077926,-0.3727982557088126,-0.1427329208780211,-0.3101445318461564,-0.3062295797572927,-0.8690177467462378,-0.6304920475992954,-0.5316427494641496,-0.37342266156671355,-0.22439419105542474,-0.266170687081099,-0.1672999644673938,-0.42137337619581844,-0.5798223451181597,-0.43049947069153593,-0.4075239056581982,-0.23948424945657867,-0.5237303930689602,-0.112078390278775,-0.17027207647562162,-0.04609516653926542,0
15.325,4.7,3.425,8.25,8.3,11.125,35.95,13.675,904.0,335.0,219.0,493.0,535.0,716.0,2548.0,797.0,19.0,23.0,19.0,17.0,17.0,18.0,22.0,14.0,-0.2611696888043192,-0.3481799339699348,-0.2024977438620527,-0.1580008969904774,-0.4166196892136061,-0.2166852461405837,-0.07394448290650724,-0.0812942455616998,-0.2657533857340148,-0.1568830905524468,-0.15850982576320835,-0.10163221334317925,-0.43841638375775865,-0.32994818895086014,-0.3983170875462634,-0.5144966745581425,-0.5525347950394796,-0.3255791981614746,0.03986506951167502,-0.04413765017034,-0.2960506019476667,-0.39394578933499813,-0.1426494344426743,-0.1442445398119594,-0.8716717189833756,-0.8474459107763789,-0.3213157809038406,-0.33097963419200066,-0.20044814485731946,-0.42859790057093067,-0.06114262558240085,-0.2823503736498803,0
8.6,4.05,4.075,6.9,8.125,10.9,26.125,16.825,492.0,273.0,258.0,410.0,495.0,687.0,1779.0,1139.0,16.0,18.0,14.0,15.0,15.0,16.0,18.0,23.0,-0.08112261608856239,-0.44816089809516974,-0.16997517593120434,-0.1993996752484935,-0.28101367013810136,-0.15302753607027242,0.02437351830436854,-0.21607509860456203,-0.5719664448294541,-0.47671961174932237,-0.42504567369081114,-0.2987335255350681,-0.38514522136280444,-0.6206925618330899,-0.17828089423606427,-0.3870152180276742,-0.37241916916637563,-0.33053816718739437,-0.20937239646656064,-0.3620875591365605,-0.24130998928516578,-0.4884814497343157,-0.0291023698850829,-0.16474533114345585,-0.5183442874905335,-0.4865525064241051,-0.32928260993529024,-0.30259333371703234,-0.6603417189585539,-0.39961873193600533,-0.1644085929900336,-0.24951003777524391,0
7.0,4.4,4.475,4.275,8.375,14.25,25.9,11.0,483.0,269.0,283.0,225.0,552.0,857.0,1562.0,712.0,18.0,16.0,18.0,15.0,15.0,17.0,16.0,17.0,-0.5354546553916538,-0.32744248481349986,-0.22022333544490247,-0.21945803653259693,-0.33685642256993337,0.006447593595261971,-0.27622087424141956,-0.45534585773168157,-0.5901301782179095,-0.4276926233811073,-0.3815804704332598,-0.43304133449419996,-0.07693806700802362,-0.5577917737113143,-0.023452546419366477,-0.13187731089660398,-0.7319081314724011,-0.5175899072107019,-0.527172603465186,-0.2559572901042815,-0.41947989629493426,-0.2535191578530156,-0.20079608075869915,-0.3216326396850267,-0.1710791243989566,-0.30042583302893716,-0.32913790214150046,-0.07974301426440403,-0.5579850086549556,-0.1475608825462757,-0.17515053020232094,0.03813162185173399,0
6.375,4.0,3.45,4.525,10.3,15.175,32.525,15.225,436.0,257.0,220.0,273.0,694.0,911.0,1941.0,988.0,19.0,21.0,16.0,15.0,20.0,15.0,14.0,21.0,-0.5385817142048493,-0.2906106302558364,-0.18509941036471933,-0.2671671907328197,-0.4085524834004138,0.045315740186702765,-0.40303220059857997,-0.547372925007737,-0.619980108891244,-0.3397498344665436,-0.11860970198833057,-0.13505633403376321,-0.2583440235931037,-0.18806055757077883,-0.33601580847264356,-0.274466744835633,-0.6284062191492179,-0.44319529928018314,-0.454143936470427,-0.6027203503464741,-0.4120426787593322,-0.07519313643959379,-0.24644913423607795,-0.3721019632711497,-0.4041088044546625,-0.3435863061891868,-0.1454082984776484,-0.1933222760178479,-0.4725730087906712,-0.1419273560012044,-0.11672662185821515,-0.15381551449160769,0
10.85,3.975,3.15,4.625,9.35,9.4,31.225,12.65,821.0,258.0,191.0,258.0,690.0,578.0,2158.0,821.0,20.0,18.0,17.0,14.0,17.0,19.0,17.0,16.0,-0.8806502055522365,-0.6183256784991814,-0.3659078234256655,-0.20508548664163836,-0.6526271921431395,-0.4305902949145507,-0.13214303992552498,-0.020729326319689535,-0.5854156797926399,-0.4555320830572345,-0.4625217964485899,-0.25676390829604884,-0.34683914504437396,-0.5706211803459931,-0.39259148844974995,-0.22791779382214272,-1.2597906947125794,-1.1332761025990092,-1.093611473129528,-0.7945940256685434,-0.5652110475401275,-0.4457749114023018,-0.32074514476408755,-0.19262677007728146,-0.7400419640275628,-0.7534233188733455,-0.4854478386131513,-0.380529392307363,-0.31312034097888963,-0.10368620312517257,0.03713494610193409,-0.31564790650615915,0
16.3,3.65,2.875,6.375,8.925,10.225,28.575,14.675,1150.0,212.0,155.0,394.0,552.0,659.0,2046.0,838.0,20.0,17.0,19.0,17.0,14.0,18.0,19.0,14.0,-0.7420084511980753,-0.5287599494131647,-0.477684772419679,-0.5163419106997833,-0.2912580214601757,-0.10379518586804178,-0.1535188720502282,-0.058307615360924804,-0.2924621347470208,-0.24913875900703863,-0.19892941509406484,-0.3029863207513748,-0.3734486275002222,-0.19886721897855236,-0.5707841922086277,-0.23204753434317674,-0.42584947904677806,-0.6766189427421107,-0.27348591904301717,-0.4512931404654955,-0.4179906035236882,-0.2073384718705553,-0.08633974526934188,-0.16102489805487877,-0.558248038377538,-0.5258431281731284,-0.35470678472500056,-0.3910142935477943,-0.30840029242902395,-0.21529586063298073,-0.5467069179470393,-0.21882634422237549,0
15.95,2.95,2.525,4.675,8.525,7.55,21.95,12.7,1130.0,160.0,139.0,279.0,594.0,494.0,1475.0,809.0,19.0,11.0,11.0,16.0,21.0,21.0,16.0,21.0,-0.5690430492864776,-0.3465241845224156,-0.3804555149776379,-0.48897057802800836,0.04986570085982573,-0.36018091899391685,-0.13394141561306444,0.003298846720246229,-0.06177051583202934,-0.32370999201551454,-0.21660166911629883,0.0076840675862023195,-0.5062076515884522,-0.4857208762875477,-0.6776595809071536,-0.38036023002448693,-0.6587307049218827,-0.20974161191868942,-0.05246648961431256,-0.1398829118942401,-0.5378864762920694,-0.24277027649227736,-0.27209589505492215,0.01509629951444093,-0.4548896726288464,-0.34890801507021185,-0.2728040866548203,-0.21064687603044438,-0.41941923095457384,-0.4759325285018102,-0.3500896972646653,-0.26026787903261533,0
16.025,2.25,2.025,4.05,9.6,10.375,25.35,11.1,1111.0,128.0,110.0,212.0,665.0,624.0,1649.0,748.0,20.0,15.0,12.0,11.0,21.0,14.0,20.0,21.0,-0.8117332550315839,-0.6480149657158076,-0.6780638692808839,-0.518833460263791,-0.4413391032074449,0.03154672773667286,-0.10868290304421184,-0.20735152535434095,-0.1640773906317982,-0.13948698615200658,-0.32694779802573665,-0.14399878140349806,0.11669416369156663,-0.457617992329989,-0.046387134658117724,-0.2745386879468025,-0.6735329431686466,-0.4362655469717806,-0.21757032383859945,-0.34331685016779834,-0.4115062569551274,-0.40086167087535685,-0.28997482491409277,-0.31949443451185316,-0.43183239463549683,-0.42588779121921794,-0.2756880371685203,-0.5240126783600675,-0.4996007174677184,-0.16775322989711464,0.17410955224201166,0.0900532696826961,0
15.475,2.45,2.625,5.475,10.25,11.375,31.65,12.025,986.0,146.0,160.0,308.0,762.0,687.0,1887.0,804.0,21.0,13.0,12.0,17.0,22.0,12.0,16.0,20.0,-0.695937759116375,-0.5230786370510462,-0.6496347032006835,-0.5160687027227931,-0.2271620791072756,0.0729130453229434,-0.3524353672539249,-0.3917208605917092,-0.31956741883098444,-0.24342735147299718,-0.3890498027378615,-0.20283510710650676,-0.11370894865302764,-0.1108638106792674,-0.27352257577586947,-0.10105356462769349,-0.6981897010408504,-0.1049653014828656,-0.11703319571725554,-0.1593512926241389,-0.1191882579562158,-0.19564326713483451,-0.26348423896089457,-0.21585417958279943,-0.348431788894085,-0.3200969701478303,-0.3370551254565866,-0.46826667024631324,-0.6097739403623406,-0.31583754162678324,-0.2552776272416789,-0.33612656018778403,0
12.15,2.7,3.275,8.225,11.15,12.3,31.1,17.85,711.0,145.0,172.0,474.0,737.0,717.0,1723.0,1133.0,14.0,12.0,12.0,17.0,17.0,15.0,15.0,18.0,-0.26303319180445034,-0.4675111840905633,-0.2665493440746625,-0.4412350339113484,-0.22926980729057778,-0.4265996135446609,-0.3267354423697762,-0.17757397998120167,-0.2919083469228206,-0.3713069054861645,-0.42396375848777956,-0.4890587925053051,-0.2637492259358189,-0.32815038592409956,-0.16906289732973107,-0.48859100682527873,-0.7652908001485762,-0.5003917635002598,-0.4821630684976454,-0.46256512542274425,-0.21954611180666414,-0.12978980691126368,-0.22882824869002674,-0.3560609437661567,-0.5315649632329954,-0.3460863696101561,-0.6350920532733709,-0.5982643608636725,-0.5275339214447202,-0.6284170746117524,-0.3964051948776358,-0.42929134844665495,0
9.725,3.375,3.25,7.225,7.275,9.55,28.325,14.8,671.0,219.0,199.0,446.0,530.0,497.0,1869.0,966.0,20.0,18.0,18.0,16.0,21.0,16.0,20.0,19.0,-0.7537222854652472,-0.6607557327789072,-0.4549510647001762,-0.24307944307217458,-0.46040823013815446,-0.19579313535044707,-0.08723284047929651,-0.19683442178764454,-0.26089965457642494,-0.4603311515501191,-0.07361770384192434,-0.40809953039949076,-0.3671379578104257,-0.20677760712992763,-0.22150019280351463,-0.33517402548666725,-0.7504243551835696,-0.34788192708469534,-0.2961409648804609,-0.08332182290663113,-0.07504159169143992,-0.17532471828064058,-0.022003555692995592,-0.35152374481170395,-0.5394827385076386,-0.18774448736098898,-0.0273084379328891,-0.26462220819405136,-0.5976718389584093,-0.6483523178532674,-0.22972826388960874,-0.3147351362971886,0
13.375,3.05,2.625,4.425,6.725,11.625,25.55,8.375,919.0,187.0,149.0,260.0,394.0,728.0,1469.0,549.0,20.0,14.0,11.0,13.0,15.0,19.0,14.0,16.0,-0.5844426517012904,-0.2828320517790618,-0.28937596670405424,-0.2085601260305971,-0.20425328934676604,0.07363665673382565,-0.09578970270664103,-0.24823424814537842,-0.22905044522975881,-0.03355746375356499,-0.34739018158864543,-0.4270313486726879,-0.3383467437094726,-0.23534793184798644,-0.4308901766128052,-0.2908205126562727,-0.17970736532722767,-0.3962168102275823,-0.038204532589886445,-0.44295267642477687,-0.2812940248516672,-0.019262248091918538,-0.2477822647591039,-0.25754298384626284,-0.2981925850222677,-0.27541344661448175,-0.14504546531045537,-0.41901027090844417,-0.36729614050317505,0.030987165897877325,-0.015393361042954606,-0.17780988440835435,0
13.075,3.45,2.5,4.6,8.6,11.15,21.7,10.675,870.0,210.0,139.0,309.0,543.0,603.0,1152.0,721.0,16.0,14.0,13.0,19.0,18.0,13.0,14.0,20.0,-0.497389600693933,-0.3791143843117054,-0.27349578186975393,-0.22671767274911922,-0.39813179650205677,-0.21275467059072933,-0.29440153931450996,-0.45565595138881715,-0.19398928010552952,0.011770012342384605,-0.07372344493086015,-0.5198741462277399,-0.4467022033922148,-0.3817261701023117,-0.14173488756783822,-0.3444753088072879,-0.38160675433616836,-0.2656500152631496,-0.11871484553143419,-0.22222661832407797,-0.33138398312901957,-0.500688746902255,-0.30632944939876294,-0.34807319202585474,-0.26140641312627916,-0.30922093725744,-0.2943309397338515,-0.2422149720851333,-0.5002374842442621,-0.014851363841632726,-0.34651619590388505,-0.42377826324239165,0
14.9,2.3,2.275,5.2,9.675,9.675,21.025,8.525,1030.0,126.0,125.0,308.0,698.0,598.0,1214.0,477.0,20.0,14.0,14.0,14.0,23.0,16.0,18.0,11.0,-0.8643422025523699,-0.6458060483149047,-0.45624991458488146,-0.11433175314648426,-0.02915823240631494,-0.10055642683180603,-0.10747622881273573,0.05212622652311111,-0.15677304248667992,-0.22744320168199988,-0.19108579927845692,-0.20736901887777415,-0.3233193834292007,-0.23610108362487134,-0.3213660039700532,-0.38125480052749205,-1.05751857280477,-0.8599128451637925,-0.40738653214464726,-0.28114134438980415,-0.45561798071712883,-0.295369766073666,-0.39530082767817815,-0.40304550054372495,-0.37431460963134516,-0.5400028177606451,-0.40356838970315007,-0.504538630675087,0.05469671846736897,-0.3468691447822786,0.04174135246731939,-0.24829681879751667,0
14.875,1.925,2.075,5.575,5.175,8.575,19.4,6.925,1043.0,101.0,127.0,352.0,341.0,548.0,1008.0,393.0,18.0,11.0,15.0,17.0,21.0,18.0,12.0,17.0,-0.7909071037114368,-0.4291345066629966,-0.29103164618696503,-0.26486549007148724,-0.16737710119991764,-0.09542821564441653,0.08049520773300453,-0.027949772179112514,-0.21790031787190411,0.024590845784201527,-0.14709085164085314,-0.3345329761125692,-0.4029477279835186,-0.3427919461535629,-0.22669757435574586,-0.19402031047419238,-0.3933750063214561,-0.06293330208514532,0.14978683174558877,-0.1419117629031985,-0.7492677972537595,-0.562254340135839,-0.6608018265480061,-0.43532800261106297,-0.0792736534705745,-0.37775356447532904,-0.213155924496721,-0.32647706800126225,-0.1220070904770048,-0.07021780005197133,-0.3211098866075016,0.15434127541880827,0
11.025,2.45,2.225,4.975,6.85,10.9,18.7,11.175,818.0,142.0,139.0,324.0,474.0,647.0,1118.0,740.0,20.0,16.0,18.0,14.0,19.0,16.0,13.0,20.0,-0.8605104741861654,-0.6015209017998931,-0.5231140562722244,-0.4014318263616386,-0.10186342792185141,-0.10852840779484935,0.10996529967212414,-0.21573874000808152,-0.2358233507609945,0.10312684194376885,0.06163006805073005,-0.21947382371639104,-0.278285492092576,-0.1914577583732535,-0.026411670066598603,-0.11607696925826845,-0.3805337591233841,-0.12445335644959851,0.0488405304547912,-0.09082030696058638,-0.3577963071853185,-0.176103493023426,-0.2416776715418504,-0.004529396009904174,-0.30280719300220515,-0.41938672510063485,-0.477329856690081,-0.3078106650548356,-0.73438487546208,-0.34022295081420273,-0.2503908182469126,-0.2883265498261742,0
9.65,2.475,2.75,6.6,6.275,9.1,14.625,7.875,670.0,159.0,184.0,433.0,442.0,570.0,953.0,522.0,17.0,20.0,18.0,17.0,15.0,16.0,17.0,17.0,-0.7292946860977367,-0.664620729805931,-0.5566747439746332,-0.4599114143424849,-0.554169713764705,-0.2586442727909241,0.0405395275273136,0.024684437583948907,-0.6285838019314071,-0.2923322982921444,-0.15890873414728254,-0.08244110447515514,-0.6997271045645592,-0.5932115844665609,-0.4890399233492235,-0.37922815593959514,-0.7774994238293738,-0.6100457542749681,-0.10675359932824088,0.06452111290097988,-0.6168532028764805,-0.22412681070370374,-0.4313902097148636,-0.466932467442372,-0.4880958472343078,-0.2677586287293343,-0.14285846076154685,-0.2053784413225753,-0.5132276044255127,-0.1807558636048054,-0.4160236719695506,-0.2679001357625959,0
11.75,2.525,2.25,5.15,5.25,8.275,18.775,8.7,815.0,148.0,130.0,333.0,347.0,532.0,1204.0,599.0,20.0,12.0,14.0,14.0,20.0,17.0,19.0,19.0,-0.4611867034493773,-0.37874709702897624,-0.10157341478358954,-0.433600165603086,-0.22159978268449554,-0.1685580961856961,-0.1419386169515824,-0.44988919404705696,-0.3088356468623224,-0.3139686205330592,-0.1955312340898315,-0.42342031671658603,-0.35997220716938694,-0.17503150004861803,-0.31612309107565195,-0.5021028149882732,-0.6471410811459474,-0.5719090106865119,-0.42615927868436637,-0.2415864673723319,-0.5902075857747339,-0.4320321914058993,-0.13976906782476864,-0.2775387424585762,-0.35035674491453783,0.13916296780370632,-0.16594294188776876,-0.44617683457826174,-0.6951009349510865,-0.5742335009293399,-0.06292068680840004,-0.18680719447872218,0
17.15,2.5,3.1,5.95,6.9,9.6,25.975,14.925,1161.0,154.0,171.0,416.0,485.0,592.0,1732.0,1104.0,16.0,16.0,10.0,17.0,24.0,20.0,20.0,24.0,-0.6261139960032911,-0.5553556281245008,-0.35911127208171395,-0.4185988434702015,-0.1264014926918651,0.051832634065879755,-0.210337458578845,-0.04326540685782529,-0.2054451686600692,-0.048328702142804415,-0.2659086672597572,0.09173424159976454,-0.567756249035376,-0.3070240380073405,-0.35171343555206097,0.011645121963945348,-0.7397866256381842,-0.48546926556019765,-0.32412072570669803,-0.1861006039937193,-0.4662034574723475,-0.21669866133805293,-0.2655756162933049,-0.31397717888399684,-0.6021459653185014,-0.47678543612853974,-0.49909128911953166,-0.4319889807284741,-0.8534365244334483,-0.5756393905745363,-0.38160130862625163,-0.08056973304800254,0
19.85,3.225,3.0,5.3,9.675,6.9,22.95,13.425,1315.0,207.0,165.0,350.0,698.0,460.0,1459.0,898.0,22.0,16.0,14.0,16.0,21.0,21.0,15.0,18.0,-0.5423528413915374,-0.3664472220487188,-0.21475968385995406,-0.03412407190268388,-0.37607069746799543,-0.12945787065883355,-0.3155040773868364,-0.15489667110746866,-0.06138584826833059,0.2039329845705924,-0.4217255201387513,-0.15707748871943777,-0.34486276203560257,-0.14642260393460388,-0.2668925814446323,-0.11693360229819041,-0.6812090813727649,-0.17434671054017833,-0.08638960825839107,-0.09630903058266839,-0.4545204582798253,-0.1447038133118282,-0.06145065722497163,-0.02613386694099574,-0.5111978341260548,-0.11109333308643966,-0.09816923891484668,-0.30099424728203156,-0.4141018643959265,-0.3559201354376428,-0.003016077524896166,-0.12650082582539088,0
20.575,3.45,2.925,4.9,8.6,8.475,27.225,22.125,1410.0,232.0,193.0,330.0,604.0,578.0,1635.0,1548.0,19.0,20.0,20.0,20.0,23.0,19.0,17.0,25.0,-0.9371540155173994,-0.8299846897358739,-0.5443382932576285,-0.304360202558699,-0.4850594076063765,-0.20698895167730622,0.03743618729175562,0.11894060512678163,-0.2224160164834688,-0.10435259228582777,-0.0051499628593837474,-0.17343235765712614,-0.2866477608427812,-0.1514774839874224,-0.036756325160885575,-0.09815426960458873,-0.5845515831798188,-0.23813352831565585,-0.3491857171745304,-0.21654993617245183,-0.2645427227089628,-0.10254902663613594,-0.2794563566946577,-0.3044862495492634,-0.4915964015525031,-0.465952328696124,-0.20131347109882544,-0.19862052226735621,-0.5123117640179711,-0.13874092877948957,-0.11161576692817508,-0.24551755409369005,0
13.275,2.7,3.175,5.525,6.275,9.05,37.8,14.55,806.0,139.0,197.0,378.0,435.0,469.0,2355.0,994.0,20.0,12.0,14.0,15.0,19.0,14.0,20.0,20.0,-0.2806553308908851,-0.1284594346671663,-0.18297510102424142,-0.12090550528545235,-0.25174144175482943,-0.4711825782515418,-0.0495853421857752,-0.05129398809584803,-0.6414022823653189,-0.47507345900180276,-0.2674877311142466,-0.1710620263254335,-0.403964702230322,-0.2267813328562005,-0.16000441526715528,-0.2828469176017745,-0.6161734687559342,-0.39716630476465664,-0.18716639889872702,-0.09096122301312447,-0.23194290833874243,-0.4126701046420978,-0.5096372889620303,-0.1489183401427531,-0.5999629113290911,-0.4623431045789433,-0.6053439959340429,-0.29696457856085495,-0.6713179156575808,-0.5314993327459367,-0.4680016706454279,-0.27726952522839504,0
10.275,2.325,3.325,5.675,6.925,8.275,39.325,14.55,691.0,140.0,211.0,397.0,478.0,406.0,2255.0,966.0,20.0,16.0,16.0,16.0,17.0,14.0,16.0,18.0,-0.7739016989481207,-0.40303653311979537,-0.24260427216024227,-0.17412210109244544,-0.38784170305200244,-0.2561821857543341,-0.21583253487185894,-0.4699835291509697,-0.5610923532123766,-0.3152289171648418,-0.3174210693644298,-0.427288016162335,-0.38929563390870237,-0.1219721308155764,-0.17989393179215676,-0.30198836311172356,-0.697277997680176,-0.575666623267608,-0.39666253928034684,-0.22172303440501903,-0.3858806936757804,-0.6379872114139473,-0.6063547273969468,-0.4807528514892784,-0.476436046998929,-0.5760516693738478,-0.6003357620214888,-0.38969259465024936,-0.4176487217260751,-0.516889931132823,-0.3405077799471244,-0.40742894757450976,0
9.2,2.15,2.675,6.575,6.625,6.825,41.95,14.975,629.0,128.0,157.0,460.0,404.0,370.0,2387.0,905.0,17.0,12.0,10.0,21.0,12.0,15.0,15.0,17.0,-0.7776011473339379,-0.5971496348112517,-0.5994906563806387,-0.27834254083546883,-0.11973486190237502,0.10548539773902581,0.2253961388297695,-0.06112820639292358,-0.22891718289415855,0.07627267670014429,-0.03580431232385156,-0.30731842673148174,-0.45906278121031346,0.029609072320273443,-0.19558843111291005,-0.30270340249361927,-0.6123288623712251,-0.4251886615136098,-0.2675495213199628,-0.11022321660831096,-0.13762845642485977,-0.35236827207230775,-0.3388107049809035,-0.3630886566543881,-0.6160821354025486,-0.6156144493337525,-0.6534391633981106,-0.5633722937113407,-0.15328433204481623,-0.24162610244935276,-0.22443643359430038,-0.10310335711688957,0
14.575,2.4,2.95,6.025,8.525,10.825,41.425,16.025,1033.0,128.0,154.0,354.0,559.0,615.0,2232.0,1108.0,23.0,11.0,13.0,14.0,16.0,17.0,15.0,21.0,-0.790964856695958,-0.45814940900727885,-0.20242771512455623,-0.09318144511801735,0.05367531474673314,0.09833027179661599,-0.15887415349148348,0.09637268997452056,-0.20295762110022086,-0.37898149426150723,-0.4843232714617026,-0.172648959731374,-0.32960531299576945,-0.3063868091596263,-0.5269687103148363,-0.40832342639600755,-0.7938544623509357,-0.6430232246574116,-0.2428184278724275,-0.055460842849278894,-0.5100833121279739,-0.4388220283056304,-0.626390391879156,-0.4384316137585974,-0.207412112637239,-0.7710234695920052,-0.27507266565322946,-0.47291070103592203,-0.41949629625289114,-0.18032705138885155,-0.05599066481405625,-0.0987072172499873,0
12.95,2.85,2.775,4.55,8.175,9.3,45.225,20.3,916.0,152.0,156.0,243.0,539.0,565.0,2855.0,1352.0,22.0,15.0,17.0,12.0,20.0,16.0,19.0,20.0,-0.966787020789138,-0.7993963254614191,-0.7768806833504884,-0.3484200724574892,-0.22211001989229545,-0.2868547451837295,-0.15122025088557642,0.00624490906535165,-0.17945347163372638,-0.3042762090659721,-0.28255028627435747,-0.07742886729153294,-0.2632175301819432,-0.4197588024337092,-0.4085960141886909,-0.4519163520087434,-0.6665491735786823,-0.5897181653443848,-0.44173187593543217,-0.3034224026891553,-0.43628757191839346,-0.33656856541756713,-0.3505055470404818,-0.1729468838321477,-0.6789285402145798,-1.0221362365633084,-0.6497899985769279,-0.6790504292048001,-0.47909881274618515,-0.562114894370825,-0.32896405091843034,-0.17772350253156777,0
9.85,1.95,2.275,3.75,7.325,8.1,46.275,15.775,687.0,124.0,138.0,230.0,500.0,584.0,2796.0,993.0,21.0,12.0,14.0,18.0,19.0,19.0,15.0,15.0,-0.9256443298381617,-0.7580161920254519,-0.8042713816810106,-0.4054029769009495,-0.17485559139971302,-0.01552611850239895,-0.09242522232881697,-0.0376238475341172,-0.24514203248232802,-0.06322451027673134,0.07764485892799977,0.02542992555901497,-0.3384346987423612,-0.36560424700348093,-0.2238969317633052,-0.3324444147656197,-0.5916327738998198,-0.1918814580756761,0.03817559710812406,-0.1502962081030867,-0.3492601651436932,-0.24607769443814945,-0.08775704264535343,-0.46337054188361465,-0.46976557387987306,-0.16222571504754332,-0.084689497267267,-0.09455748316963039,-0.3047949712254901,-0.18237650300340244,0.021182046239048874,-0.08986880196421346,0
10.025,1.725,2.6,4.55,5.225,7.075,33.875,13.65,680.0,84.0,122.0,264.0,346.0,427.0,2117.0,976.0,18.0,12.0,14.0,16.0,17.0,14.0,19.0,22.0,-0.759797516088929,-0.4368594389524583,-0.4121251463254755,-0.26615253316080484,0.0006679175483781961,-0.013914877474379446,-0.4296678285209701,-0.10119346516469038,-0.10909876168270616,-0.03288271037264859,-0.39168857452273725,-0.21563946951543858,-0.35879818867101226,-0.28929026486948156,-0.22924889474620164,-0.2732249396225752,-0.5275014661913054,-0.51713653992986,-0.14701749233432998,-0.22615873896931696,-0.1382003225162456,-0.18740888976750877,-0.26118609591622166,-0.14630680072272004,-0.442994595688776,-0.16704179642063988,-0.2866329011196468,-0.14240778192399417,-0.8517868537977442,-0.3916677006900765,-0.08872083978550815,-0.032842952028161405,0
10.575,2.35,3.05,6.625,9.25,10.55,41.75,14.275,716.0,136.0,184.0,455.0,627.0,629.0,2574.0,888.0,17.0,13.0,13.0,21.0,19.0,17.0,19.0,17.0,-0.6679366564627671,-0.47817882043985455,-0.38699992076785816,-0.3326020639348037,-0.13081525642271605,0.05815570349958875,-0.14121156096131904,-0.3349168526411556,-0.3133567790788983,0.17644821846797593,-0.06785660272474094,-0.3173646551713009,-0.4507573874527693,-0.1273722670067831,-0.2830794810510751,-0.4034785010086513,-0.6897122431800504,-0.5184469857887614,-0.10543239225509327,-0.12060663793422989,-0.2674378662945969,-0.0847539377627561,-0.06442996911528312,-0.2058193591974213,-0.418252381781052,-0.1965021680172599,-0.3044910829946487,-0.40812836400242025,-0.42371755133281347,-0.17960552159949694,-0.15466444259811102,-0.3937555987416936,0
10.9,2.075,2.55,4.325,8.45,11.725,50.3,19.975,720.0,126.0,163.0,300.0,546.0,751.0,3044.0,1305.0,17.0,15.0,17.0,13.0,17.0,19.0,17.0,15.0,-0.5297288937445283,-0.4627742140675048,-0.38937054556608924,-0.42350779705751823,-0.13187630924370314,0.1811693422749975,-0.2673383543699897,-0.34767149802755115,-0.32406222472773694,0.1786508822215708,-0.31290941314251214,-0.49470854246808565,-0.41909026692766516,-0.19960443960955632,-0.3047171174604423,-0.4717432797505642,-0.4438572812897271,-0.3701533871086051,-0.2853519044860885,-0.2882214951435065,-0.5513795224041566,-0.26755382596778393,-0.010639633764446517,0.18368639833787317,-0.3483542549442905,-0.3691256558214806,-0.09324066482291013,-0.26276426824868937,-0.5362648769912879,-0.25500528085825086,-0.1351525902174471,-0.21935820696211164,0
7.7,1.925,2.225,3.875,7.025,10.825,43.25,17.875,486.0,111.0,137.0,244.0,485.0,711.0,2821.0,1164.0,18.0,12.0,14.0,18.0,18.0,18.0,19.0,19.0,-0.65800929708216,-0.57844944470089,-0.4847221710256313,-0.34390729447209734,-0.13625528298090375,0.07388123670647814,-0.08437891723557446,-0.06331610987990961,-0.3986187140821505,-0.10160272624214721,-0.09774788012767488,-0.2552330439219914,-0.41976065848368965,-0.5062259018926598,-0.17771556453512624,-0.25990813928362455,-0.536187157367336,-0.3230075796022464,-0.19641902810832484,-0.25748299460927393,-0.6414239692684036,-0.17857799379829764,-0.04473856913610079,-0.017754767538583374,-0.4925665840001057,-0.11242996134689572,-0.265102574764129,-0.2950837912188233,-0.5517450553477207,-0.1686839170826463,-0.24777209184052115,-0.17526202534220628,0
5.35,2.525,2.6,5.525,5.475,8.175,36.025,13.65,350.0,148.0,159.0,384.0,371.0,498.0,2225.0,943.0,19.0,16.0,13.0,19.0,15.0,17.0,14.0,14.0,-0.48117944467007406,-0.4534711597820492,-0.3553229982843484,-0.06844377444608742,-0.24941902203207744,-0.21096042222554795,0.1674557164518272,-0.15467239951339185,-0.21694275517975398,-0.4520285269045152,-0.10951350218123956,-0.4410809483757212,-0.44850749830666975,-0.34729135660928434,-0.0937341646368635,-0.15074459692909029,-0.4008520555865887,-0.1676170660567576,-0.07180125392565194,-0.3599455274585555,-0.2956537676740316,-0.1579955989089506,-0.2554864433926987,-0.34904613600374945,-0.5120695774735244,-0.4168601831078595,-0.3590316396431292,-0.21742466167326632,-0.6686303064601021,-0.34576042354940734,-0.21403438961561919,-0.20480915220930218,0
5.175,2.025,2.325,4.6,5.725,8.575,35.1,13.525,322.0,102.0,144.0,345.0,379.0,508.0,2161.0,948.0,17.0,13.0,17.0,20.0,18.0,15.0,21.0,23.0,-0.48871466485340337,-0.29534834210091965,-0.394352137255447,-0.2913381805587163,-0.21234810302750298,-0.31507561953944213,-0.25923235308848847,-0.3796446196684141,-0.4771123985077474,-0.4784153041538823,-0.3474791932030523,-0.41317234311067447,-0.6312558853164029,-0.45343597707440664,-0.26918877912731787,-0.27828979181473723,-0.3953732579676666,-0.315067241386574,-0.06468588023535418,-0.3072534069776274,-0.16507700470256864,-0.09873905668707528,-0.24896956459694358,-0.43352050017406035,-0.6248822225625063,-0.46084829232693275,-0.40869265626423656,-0.39583129554680707,-0.5902600958242316,-0.18319949170842392,-0.33731016327834207,-0.24430944026334328,0
8.5,2.175,2.525,4.85,6.875,9.25,31.725,11.05,604.0,122.0,167.0,310.0,453.0,502.0,1816.0,751.0,19.0,11.0,14.0,17.0,18.0,17.0,13.0,16.0,-0.5570158615687332,-0.37584141663471754,-0.29965517154408217,-0.32660874227034664,-0.16536809253618168,-0.24712235485063122,-0.15633550866573664,-0.26308159768028233,-0.2955321110309605,0.08070979662818484,-0.14157821369307594,-0.24879441751221285,-0.5235397539480591,-0.3443762833459213,-0.31194282751074254,-0.43070944208846795,-0.35639865453174097,-0.049764217943014076,0.045011079532273256,-0.27571994370214664,0.029964984268012272,-0.10443873781893706,-0.09367449119945367,-0.36218435012224304,-0.3522744046949255,-0.44591935141817035,-0.35470833864809276,-0.4312573975394067,-0.5911668876956965,-0.3839141311396924,-0.24119602642604018,-0.13056499832092258,0
10.375,2.2,2.575,4.875,7.075,6.55,28.85,11.85,741.0,130.0,174.0,311.0,391.0,384.0,1497.0,701.0,20.0,16.0,20.0,20.0,17.0,13.0,15.0,18.0,-0.8134312468002606,-0.5656837631195154,-0.5403736222752905,-0.43456606884092586,-0.1683204412022395,0.17099742565354623,-0.3282464090022736,-0.05064807473312477,-0.5566993114404433,-0.06703688019632086,-0.2994971903760781,-0.14573176976167018,-0.3930232869469116,0.028924908239940126,-0.3072337101144383,-0.3169177003737002,-0.3695113457479652,-0.13873255825992686,-0.22900733354824543,-0.29464390662110507,-0.059228334223687895,-0.11163660865236143,-0.1542560296727677,-0.09003546104648671,-0.22962589544161946,-0.3672670658346619,-0.370017615586912,-0.4511245529697199,-0.3464290602624423,-0.4095614044595541,-0.05233841702752154,-0.1838582153600857,0
10.65,1.6,2.05,4.4,8.175,9.675,32.325,11.9,776.0,105.0,120.0,265.0,542.0,574.0,1817.0,807.0,19.0,14.0,10.0,12.0,18.0,18.0,16.0,20.0,-0.7974752279600648,-0.5678076688254883,-0.4807643407711861,-0.39959722220808164,-0.4024077619643306,-0.05214165539437072,-0.18687057904548937,-0.19612522292843654,-0.15852946985994656,0.0035674927524120287,-0.3540341469860965,0.04752651449283638,-0.3190290358880749,-0.25122820355437075,-0.24983693098478862,-0.19764499747273254,-0.7284904216512644,-0.6646294502049118,-0.4243228508698233,-0.3029858473800074,-0.15479068696057427,-0.13925323839785073,-0.16170173122399942,-0.30003754718653936,-0.20205324226808014,-0.35096240824089087,-0.31867797519461133,-0.3877545614535638,-0.3096762947437478,-0.17085951777431077,-0.12295685689414088,-0.36342073028496497,0
3.925,2.25,2.475,5.375,7.225,10.425,36.3,11.275,272.0,134.0,148.0,347.0,420.0,484.0,1897.0,790.0,16.0,12.0,12.0,17.0,18.0,10.0,12.0,22.0,-0.7766769424495318,-0.4463090685832919,-0.24125973137760792,-0.17863769859474501,-0.08812029859007856,-0.2067149557054754,0.08064417921899288,-0.3928247083840198,0.09528160109767043,-0.30088993350694415,0.1822964375567261,-0.373005315906406,-0.3704474870576945,-0.3776348173485443,-0.1830498125836069,-0.19104663641449993,-0.3154704924434277,-0.4123262718514538,-0.22646335307728976,-0.4026447935421362,0.34625786026079775,-0.2457305405301804,-0.17591791934864606,-0.1479631316442173,-0.1589671655156338,-0.1929297338018831,-0.290363799483638,-0.1343582152706952,-0.3576670557301745,-0.11914020866563788,-0.19784983261687392,-0.1833855595625239,0
3.725,2.2,2.4,3.5,5.55,8.125,28.65,8.975,217.0,133.0,138.0,204.0,314.0,458.0,1751.0,581.0,12.0,18.0,18.0,17.0,12.0,13.0,18.0,18.0,-0.5060602457864102,-0.5219171647182811,-0.4241660211769563,-0.5084504922198607,-0.35000787235241104,-0.5765100732159526,-0.1312606904115088,-0.4656325556356571,-0.2788033618764151,-0.25296458379705444,0.20175132468528953,-0.18685397421012087,-0.3193307618289638,-0.21430148438612695,-0.08647273299796283,-0.2678608308771076,-0.09240836866260888,-0.21322547130913627,0.006677557132992825,-0.37201398003213687,-0.11642191571839487,0.1429671642914707,-0.13432503224361309,-0.2354099234327206,-0.3012986526129601,0.02682950105084606,-0.1915011083804988,-0.21150789273227982,-0.5506544881845533,-0.27899003380656184,-0.40588585488868656,-0.28879221043756204,0
10.125,2.125,2.375,4.95,8.875,11.425,39.7,11.3,650.0,130.0,139.0,286.0,582.0,680.0,2372.0,725.0,21.0,14.0,16.0,18.0,20.0,16.0,15.0,19.0,-0.5244504375568001,-0.39347412221731626,-0.42241943957676714,-0.3298357962116897,-0.2856985761863407,-0.23617677266618028,-0.29674593519642334,0.11188314818285186,-0.6792471811361352,-0.49076259179272397,-0.4214649712335678,-0.008806585646865482,-0.2993590718825364,-0.03145004840241403,-0.25611314706445903,-0.1641027716766845,-0.7409960149003114,-0.3127021684597081,-0.25369233703032246,-0.18215128851466855,-0.29023760974775165,-0.11974259869226617,0.020671714911570726,-0.13615462860002897,-0.31071026055109413,-0.4788263369264034,0.02440720146870022,-0.315189880027123,-0.44856634202539997,-0.5135712454659946,-0.16353385197348877,-0.07521269819368862,0
10.375,2.2,2.15,4.675,8.225,10.9,33.9,10.825,736.0,126.0,136.0,298.0,586.0,586.0,2219.0,634.0,20.0,14.0,19.0,15.0,22.0,16.0,19.0,17.0,-0.8154924512970713,-0.4508869156252904,-0.43287693054342496,-0.35816420373668617,-0.3298827148146358,-0.009133489751452907,-0.04822572580157084,0.12521300350108475,-0.5349010424065231,-0.21119813887722266,-0.028263425946900365,0.03396340051161179,-0.504087717322649,-0.26980443602648146,-0.3373600146458781,-0.30941556095265854,-0.7395309024830942,-0.06262911499051857,0.037572959225441974,-0.22052931607974302,-0.18420967506201277,-0.5523763806704679,-0.16772541805062735,-0.4415250910244634,-0.48544005753527075,-0.380631047941586,-0.268473113671669,-0.6005121496737975,-0.3833669118629119,-0.40307968216698775,-0.0647815379894854,-0.1542448492241828,0
10.9,2.8,2.55,5.35,7.05,11.025,35.975,11.8,778.0,191.0,162.0,345.0,456.0,625.0,2127.0,759.0,20.0,13.0,16.0,18.0,21.0,15.0,13.0,15.0,-0.6405290302634175,-0.33606448547220713,-0.16596367783614407,-0.16017450895202703,-0.47518811511668163,-0.11425323988422481,-0.08355753122764607,0.033930534169009104,-0.5111179654348281,-0.3058386966379811,-0.3143441983906603,-0.10177845502698625,-0.7273019971625824,-0.4479888423191495,-0.36737722103253584,-0.17284190645691438,-0.5638971124450569,-0.26726636677159027,-0.2036920677196844,-0.1785360058243725,-0.09672551484074889,-0.2926548933911859,-0.11039855754572736,-0.046181913351524925,-0.5148508661684905,-0.3652753205038254,-0.2807214617204599,-0.18314334314292716,-0.3353893412742652,-0.46952553067978486,-0.005476100777272443,-0.400536459210747,0
14.275,2.625,2.65,5.95,7.55,10.85,27.325,13.475,938.0,163.0,157.0,381.0,520.0,743.0,1829.0,834.0,17.0,14.0,15.0,18.0,22.0,19.0,22.0,16.0,-0.5556385474428521,-0.36825770600433283,-0.35228075593957053,-0.16855108573108088,-0.28421513044674795,-0.003720105298067902,-0.3071094065153139,-0.05387445345560839,-0.2727967807126327,-0.1485412590830983,-0.45839344201083887,-0.268530824880749,-0.36461650422141934,-0.14022457697309812,-0.10988901406291364,-0.4896118086003383,-0.691168443607775,-0.29005651506497243,-0.3793269403953761,-0.5037532634688834,-0.45596494019688216,-0.2369420272735277,-0.0440582197832614,-0.022912569946496642,-0.44791724830034435,-0.23246201931498653,-0.23534461075514682,-0.15738989789500063,-0.4364124564566656,-0.5334678755534987,-0.5050336687076701,-0.2769747684792419,0
9.975,2.575,2.5,5.125,9.55,9.0,30.0,13.65,670.0,148.0,156.0,344.0,600.0,606.0,1988.0,837.0,18.0,13.0,17.0,18.0,16.0,17.0,18.0,19.0,-0.5002210510784246,-0.41301255498023626,-0.3777688541493424,-0.15079470935380113,-0.2710137045784599,-0.07250838780490296,-0.2572366832450271,-0.19960032927264346,-0.3768347084748945,-0.20692165472210625,-0.1625250304442812,-0.310586922361293,-0.5593246260319643,-0.026520724411968552,-0.1896348214547187,-0.2465671068914738,-0.7734853161339442,-0.5801307811078537,-0.2761112145647598,-0.13926043799881888,-0.5916008660000905,-0.47361083498707635,-0.266310618663653,-0.05571877159424393,-0.6219392234208092,-0.21000765937082766,-0.57716198982636,-0.5011325668028829,-0.4185177413092772,-0.28838722555720847,-0.4506934482806728,-0.38890230006198256,0
11.9,2.35,2.25,4.625,8.15,9.2,26.9,14.75,773.0,119.0,142.0,316.0,526.0,562.0,1665.0,880.0,20.0,12.0,16.0,14.0,21.0,21.0,17.0,12.0,-0.5023440995432686,-0.29983912228184373,-0.2346006971188701,-0.17750543231326188,-0.2869414347533835,-0.2668464662198233,-0.2826967057638313,-0.20378457413855985,-0.3511739561721643,-0.22004680304418997,-0.3205323140610459,-0.2945100356569116,-0.4118213029364696,0.27171628752892674,-0.15430554106001668,-0.32836451979964065,-0.8182147792598304,-0.7185778963609399,-0.4321305015976651,-0.24439693989521769,-0.3557968989506095,-0.2941682252175711,-0.14843508698769403,-0.2162918698271384,-0.4340807142425163,-0.30725426553856816,-0.3743355351401177,-0.3588885749629763,-0.25552020892812694,-0.19683130380716032,-0.25859949558326556,-0.3493685880937842,0
13.2,1.875,2.3,5.3,7.275,9.55,24.175,14.85,951.0,114.0,140.0,374.0,491.0,654.0,1543.0,946.0,22.0,9.0,16.0,20.0,21.0,20.0,18.0,17.0,-0.79568389015188,-0.4280158839387287,-0.30710464430267287,-0.3205103179063895,-0.23331136484561854,-0.3180742028571389,-0.08505753264886995,-0.1246757061956612,-0.3597171998692193,-0.33901799259465193,-0.3986949296728323,-0.3004992733096471,-0.5007155800329172,-0.25674378691319727,-0.2354519606084182,-0.22609215084655418,-0.6522340338072341,-0.39753278401747943,-0.17503231945235295,-0.38077911373974815,-0.5416380780441649,-0.16806255517329274,0.01898166215474853,-0.07329870628205173,-0.6424823436370709,-0.8224176120743656,-0.5482233308917585,-0.3904524489037409,-0.4351445203628522,-0.3358345857526748,-0.2537579637258566,-0.2754698948523,0
9.125,2.225,2.7,4.875,6.5,8.45,31.775,12.275,560.0,141.0,165.0,272.0,403.0,516.0,1984.0,727.0,16.0,12.0,16.0,14.0,19.0,17.0,14.0,17.0,-0.3765638788472163,-0.18607816309242933,-0.16903774511018363,-0.06419005325535598,-0.214722198614524,-0.2232267474582797,-0.09440543050055662,-0.22054986613356348,-0.27761179424047044,-0.19831295408278657,-0.1989251150378004,-0.15625131945234128,-0.34656675642353035,-0.37257170484482005,-0.44259111998837797,-0.39549061701811716,-0.4106372982408782,-0.2976515398239466,-0.0011546697475943932,0.15123001718341164,-0.0477749017964728,-0.19394657875390986,-0.14048224207881563,0.015918218240592228,-0.32634476675786933,-0.09482329008399092,-0.11697580748202072,-0.2588072051760387,-0.14925541896456904,-0.251444176109047,0.016327468417937935,-0.033679761489682124,0
11.25,2.3,2.8,5.875,8.875,8.925,26.675,12.1,789.0,128.0,169.0,389.0,620.0,554.0,1628.0,798.0,20.0,12.0,12.0,19.0,22.0,22.0,16.0,20.0,-0.7119488991803739,-0.5368004142168049,-0.5058041282725467,-0.4135971211743613,-0.08231302013474616,-0.2479548007949816,-0.05464722472542702,-0.3134445064886966,-0.2863343667476342,-0.27580671742836904,-0.3328203190316095,-0.16697926316059963,-0.5192228060939275,-0.25306034417212403,-0.28115933770538265,-0.3135736311820511,-0.7823244766248881,-0.3176213593363987,-0.030640845452026975,-0.07677222363694491,-0.17720556710888835,-0.12731537147674257,0.006206902423611186,-0.12332906666441858,-0.3771249306647188,-0.21237765743733947,0.0034212881439713346,0.0025448010045688633,-0.4154499156028259,-0.31082757687028867,-0.2286176460542569,-0.15663781105100288,0
12.1,1.625,2.2,6.425,5.975,10.0,36.175,13.425,807.0,72.0,120.0,408.0,361.0,565.0,2172.0,809.0,21.0,6.0,14.0,16.0,21.0,15.0,19.0,14.0,-0.6935648214112885,-0.5250264842053147,-0.3681595556245233,-0.2892540259593623,0.22010780296426727,-0.3285582431074365,0.14817326150016302,-0.21560035247479664,-0.08740231870713562,-0.004108002884077622,-0.19314179397371867,-0.41984669875963987,-0.3570123267063754,-0.11526707057569759,-0.23027300254438604,-0.14909825795077458,-0.4724477662504717,-0.2891498404242324,-0.17347193026615662,-0.0036024888198000465,-0.001405367577098506,0.021596084867335476,0.031522135598877406,-0.46296189605952875,-0.22492528624113883,-0.23991071743740033,-0.04068016486582587,-0.36785588713610945,-0.008798921924109596,-0.4130996037508511,0.08190478317169926,-0.3717224107080376,0
9.2,2.3,2.925,6.175,8.85,11.775,33.05,11.7,596.0,120.0,163.0,382.0,586.0,664.0,1878.0,706.0,18.0,13.0,15.0,14.0,20.0,16.0,15.0,18.0,-0.5432060939952693,-0.4767377869198687,-0.33197779174159614,-0.3582310004113984,0.07927634514408728,-0.594387577854535,0.06075144142898133,-0.3373993292399126,-0.07246769797247607,-0.4342996972597343,-0.20363439814123024,-0.14091748028871806,-0.23606898978328913,-0.16984521185625112,-0.19695995024731852,-0.20176080697616244,-0.5542387396213712,-0.06847498579849319,-0.23156709676610907,-0.39444420637920635,0.09143909842748421,-0.28457409248149357,0.055288990881026484,-0.34564411692060343,-0.06402028190154928,-0.49438613028500406,-0.13954736211484872,-0.38871296895801455,-0.44817348477701785,-0.5341363367020731,-0.4063777395596039,-0.3030030506539744,0
8.125,2.35,2.65,6.075,9.675,11.075,38.025,12.3,483.0,149.0,174.0,379.0,612.0,632.0,2454.0,736.0,19.0,18.0,16.0,20.0,17.0,18.0,16.0,18.0,-0.3013163026575401,-0.20908573877706035,-0.17853475342253675,-0.066255594439626,-0.648873409343403,-0.6132455550901101,-0.40432850970517725,-0.41112609342191764,-0.36114624224404357,-0.04622993151652355,-0.22977817201440243,-0.33062464114677725,-0.15086164847734726,0.04503676167601464,-0.04816061044727333,-0.1437703662279816,-0.6264715574911617,-0.2458176259222821,-0.3453322730765456,-0.40671560484442093,-0.1958186720827733,-0.05487886288528168,-0.2896852040415031,-0.2704395585513566,-0.7363237235415382,-0.854715841952358,-0.508524311387865,-0.47360585813929845,-0.4945830855822559,-0.4834710008705963,0.05778612399429187,-0.014353663910073653,0
9.125,1.825,2.425,6.2,6.55,11.925,34.25,17.275,677.0,94.0,150.0,429.0,437.0,769.0,2156.0,1147.0,20.0,6.0,14.0,16.0,22.0,19.0,16.0,20.0,-0.6975629454936652,-0.42682668848921645,-0.23431796975939354,-0.01903063024188007,-0.09964012356031698,-0.09667315754743677,-0.11633761084938832,-0.4433615306649752,-0.3700857729936208,-0.21434273837388954,-0.10190842784479005,-0.2802514659588063,-0.5474842567452588,-0.3199840846634574,-0.18420394817842198,-0.11738915901389037,-0.6622031117010495,-0.6633629035940596,-0.38084343638921686,-0.3659121856294317,-0.5416044515031562,-0.2556398831211064,-0.2886761236204652,-0.30163528600933953,-0.5923695022303896,-0.5672315532115897,-0.3510981047838776,-0.4016654277398101,-0.45928436980547466,-0.30104462488382644,-0.11847865201282073,-0.13638529115273645,0
6.35,1.95,2.4,5.7,6.475,9.025,33.6,14.225,438.0,121.0,143.0,397.0,398.0,545.0,1928.0,966.0,18.0,12.0,16.0,21.0,16.0,16.0,18.0,19.0,-0.6071235663312035,-0.2952772391998444,-0.16184212540454365,-0.1690393340129542,-0.057094262427307314,0.009570177505695625,-0.08638863665247556,-0.09382762958564354,-0.2181798836103511,-0.14753641652289481,-0.09549914963596545,-0.172676796656044,-0.47903559744665186,-0.2526809840267498,-0.09228696213237858,-0.25133089667922304,-0.3608925634298438,-0.35323929635713713,-0.3590274511895972,-0.32951733364693403,-0.21983949818805754,-0.08318317001386423,-0.07558438291060873,-0.05928394247465919,-0.2286971519950486,-0.2666134283155416,-0.3737195989431389,0.03525720039151009,-0.7043790312029471,-0.5363297546154508,-0.5618039564016848,-0.42222272825739937,0
8.05,2.15,2.7,5.4,6.15,8.525,39.175,12.425,554.0,137.0,171.0,357.0,330.0,481.0,2524.0,773.0,19.0,14.0,17.0,18.0,17.0,13.0,21.0,17.0,-0.7209105704303748,-0.5582654013109096,-0.36819487306626664,-0.4890733369842973,-0.3455444556645827,-0.19855301798285177,-0.19081722480866375,-0.1279223382730342,-0.4600915380372015,-0.41003298437401287,-0.27985529770229456,-0.3630215235748242,-0.44613214994827055,-0.07823473891537706,-0.04738185314552777,-0.2829381184721507,-0.3186289058949081,-0.3447942020658993,-0.2775710839822064,-0.46121720047372256,-0.17938743503673665,-0.28702237752300364,-0.33252966816057844,-0.29463881662129154,-0.552156838902888,-0.34171513123630354,-0.5568682199678656,-0.4071655636433489,-0.5775280622135371,-0.4271226201670744,-0.41940324611493035,-0.43570837866815554,0
8.55,2.325,2.175,3.95,5.925,7.0,29.575,8.9,563.0,147.0,143.0,255.0,364.0,450.0,1743.0,556.0,20.0,13.0,16.0,13.0,16.0,20.0,16.0,14.0,-0.5791977325373892,-0.5983471803988918,-0.31073431217726993,-0.3481382207920056,-0.4166507056133481,-0.24007377822898332,-0.2012684455507232,-0.15531576360022445,-0.5396635710332558,-0.2859245772211035,-0.17205901952846284,-0.04253421188593779,-0.24022068787707654,0.1336896834619708,-0.16475302236143677,-0.35490332684129455,-0.5581764795415369,-0.27796095061766923,-0.21047882128924633,-0.23670612016211573,-0.4649977193752299,-0.3592333280849986,-0.42119875424655423,-0.23135122727557367,-0.3820006263720438,-0.3231656657059965,-0.3365768607457177,-0.3017123721000063,-0.31321404086367316,-0.0441164480593856,0.03476112934167222,-0.17207742147380317,0
8.725,2.825,2.175,4.775,7.95,11.875,36.15,10.85,554.0,141.0,135.0,316.0,502.0,680.0,1929.0,660.0,14.0,12.0,11.0,18.0,16.0,13.0,13.0,13.0,-0.6239622091302739,-0.5191253047072178,-0.5774831766593551,-0.49641031462820545,0.00251757711683004,-0.1826191932170842,-0.029269606671911884,-0.18802376459419293,-0.21404033373840498,-0.041314978024963506,-0.07722331169711334,-0.05481208673316827,-0.5251121060826232,-0.3978698861489978,-0.20689864107895167,-0.27715138072450995,-0.4512329522544361,-0.2872836764079603,-0.37192968718750063,-0.2118405910878029,-0.025024450313612133,-0.2859286109075867,-0.11474532847736015,-0.3027722060250527,-0.2575875853223104,-0.3941255505610498,-0.3983658105927388,-0.3907183700860922,-0.0789691111125006,-0.3454093786617617,-0.11222138440784024,-0.35334486933804143,0
11.15,2.45,2.25,4.825,7.775,11.225,33.325,11.55,774.0,104.0,138.0,293.0,469.0,687.0,2093.0,615.0,21.0,11.0,16.0,16.0,19.0,18.0,20.0,13.0,-0.7505805247781984,-0.6021846785864617,-0.5841093277344647,-0.5839061886463514,0.011429440056309893,-0.19843838515423368,-0.33173056899876374,-0.31849036376638845,-0.5544330929208752,-0.3311138158575917,-0.32013828943713457,-0.34040676378715384,-0.38266910205644933,-0.2601550506641503,-0.15518378851233589,-0.31129055076743006,-0.49899710128721275,-0.42639233707583674,-0.3404869562932923,-0.2141688045095267,-0.29078707992474134,-0.07352277594504507,-0.26469527471798704,-0.1495413191086626,-0.4233534762562375,-0.19964036427243817,-0.39892598537708696,-0.3621463565425691,-0.1444662434095695,-0.21422696768496172,-0.21125270482864247,-0.32699648287382355,0
11.3,2.175,2.05,5.025,7.5,9.425,32.125,14.65,771.0,110.0,113.0,287.0,515.0,588.0,1833.0,1017.0,24.0,12.0,10.0,16.0,20.0,16.0,14.0,23.0,-0.7516390172602355,-0.5242122131931423,-0.46670169073122575,-0.4139953516884646,-0.147995061440301,-0.26219661377479175,-0.3831609034319966,-0.29952264862856703,-0.0990154437983668,-0.4423282028461775,-0.07890058020978542,-0.24852320853259746,-0.1549386020495835,-0.4311283216910242,0.026411871362329333,-0.2721920240298444,-0.7687586674561864,-0.2103392121563407,-0.17232879241277263,-0.2422130664639973,-0.40526232708987286,-0.2913380040924306,-0.35936729734209133,-0.13079491734167425,-0.42166341426875253,-0.8014100725254166,-0.38938896804967554,-0.6559289327069545,-0.5171436252837932,-0.28473714018266433,-0.31902437976214515,-0.2696819159617008,0
11.275,2.375,2.2,4.45,7.825,7.25,29.225,10.9,747.0,143.0,133.0,288.0,522.0,411.0,1604.0,780.0,17.0,14.0,11.0,19.0,19.0,17.0,16.0,18.0,-0.5320279972682477,-0.25896398008678556,-0.22619536444347715,-0.33951587500783503,-0.2343560197584306,-0.31889850551162835,0.14352482348226453,-0.1098223236463279,-0.013654255566105526,-0.24001874225583505,0.040440731783202795,-0.11525181403848284,-0.43620641274514266,-0.23805190560358272,-0.12557996383306036,-0.1609029378885676,-0.7899159863452078,-0.4917439202489245,-0.39554925768946425,-0.32236758323314957,-0.008723465879784594,-0.0378698839332968,-0.06951835469950891,-0.06532773769531891,-0.2974583117916127,-0.3028782714077687,-0.23596735606441838,-0.1636425653487953,-0.5564180611128617,0.01886399413360228,-0.019100856528439257,-0.14107319116923855,0
8.925,2.575,2.4,3.9,8.1,7.425,36.05,11.45,643.0,158.0,146.0,272.0,566.0,387.0,2231.0,803.0,21.0,16.0,17.0,18.0,23.0,13.0,17.0,18.0,-0.8584001687798338,-0.6631215590013514,-0.22239827115807945,-0.20432713846471798,-0.5031453898484229,-0.4712894847550682,-0.3397846358741593,-0.3275123644841609,-0.3958316744098419,-0.4020485570982628,-0.20404661558140505,-0.39238442860707845,-0.857423267118559,-0.861662507404073,-0.3577804096556264,-0.2535091977548455,-0.6660920349082651,-0.15427026250187076,-0.20444353994029962,-0.3066696641952691,-0.15327673330251074,-0.29216810718566255,-0.2710398122799983,-0.19764051164624208,-0.44539634935693,-0.5204893077619337,-0.24946631647724993,-0.20986469027600305,-0.7970425309432061,-0.42002605197552845,0.08854145459604322,0.15818332211324954,0
11.675,2.45,2.9,5.425,7.85,10.35,39.35,16.925,801.0,139.0,164.0,320.0,505.0,489.0,2011.0,1031.0,15.0,14.0,12.0,11.0,16.0,11.0,10.0,18.0,-0.8392227915737258,-0.7711683970946857,-0.5247068975091346,-0.33408306514410174,-0.3332800773407307,-0.20087265648947625,-0.07508801995710046,-0.1729149067421954,-0.49689012323583254,-0.2966662929622986,-0.23481615825741894,-0.24898220616000852,-0.3914006577672447,-0.39699118228372415,-0.29730464128481476,-0.24096163599289963,-0.5197720401667425,-0.26630366017741114,-0.10178641464608797,-0.22175847081636396,0.2975606705249141,-0.17533186158260922,-0.3183972709635001,-0.06274871564466233,0.12412929606773647,-0.4399043941667369,-0.12618400063529314,-0.26179987006651284,-0.3744951306236653,-0.5260484773691526,-0.16377659689016996,-0.35350457437922406,0
8.575,2.725,3.025,6.45,7.0,9.925,36.575,13.875,603.0,168.0,191.0,403.0,494.0,616.0,2100.0,932.0,20.0,18.0,17.0,17.0,22.0,21.0,15.0,17.0,-0.7358954389070812,-0.5793257216382979,-0.5996731094072884,-0.4747486591902615,-0.48533664469908855,-0.13375262108658445,-0.0196095991975436,-0.19112629265390305,-0.4276836808626868,-0.07249604152999217,-0.21273441114410974,-0.1186960788844683,-0.47988816056798267,-0.2559647157880566,-0.39586465437232865,-0.4131849379586954,-0.8469951410607,-0.5623166313761498,-0.11808831381284322,0.10790065583626453,-0.27050611365759997,-0.1676818085973599,-0.29278828054703815,-0.3752158593581842,-0.4139474862880207,-0.2517908950546594,-0.5790441725539015,-0.42229371566450236,-0.49115463248380786,-0.2894640800726872,-0.17087976776376637,-0.29695211068690086,0
11.725,2.1,2.725,6.5,7.775,8.8,34.95,15.675,784.0,147.0,170.0,395.0,545.0,525.0,2283.0,1090.0,21.0,16.0,17.0,17.0,20.0,14.0,15.0,20.0,-0.5241647791307074,-0.24039155576909327,0.06310860766343798,-0.10401923306776353,-0.6916160334717572,-0.5817987092995119,-0.29252263961004743,-0.4390010468893926,-0.4547815767129505,-0.28324865539894734,-0.11527701214009416,-0.28124058463157225,-0.40735159174272745,-0.356395082411598,-0.16803239220999244,-0.3133026952515176,-0.6603180920875268,-0.2539255452296367,-0.27877299924434157,-0.3126201306377934,-0.3921310269388133,-0.2043429114246559,-0.10953848748716853,-0.23342311881193464,-0.7117556108620807,-0.7045195181136288,-0.5352247610821946,-0.5694434007457984,-0.6168546754574613,-0.4378541987659536,-0.15592339763467303,-0.17629349177286907,0
12.025,2.05,2.825,6.2,7.25,8.6,39.325,18.375,807.0,123.0,161.0,371.0,483.0,519.0,2850.0,1211.0,23.0,18.0,13.0,19.0,19.0,19.0,25.0,13.0,-0.7813349073092216,-0.6884076936913215,-0.5753903375167997,-0.4000192772640378,-0.36142633971286736,-0.23633593021545682,-0.17960968429464974,-0.4538471641246561,-0.2524263195981142,-0.38921636163983203,-0.09759810411798012,-0.4785210943652164,-0.3680731749588323,-0.355740833216791,-0.1141394024755475,-0.4075146921938907,-0.786410204317634,-0.5870608845951738,-0.41710031551813104,-0.2591089355922753,-0.48235931838697904,-0.19960124351978897,0.08910163149780417,0.0959598830231693,-0.8091302826749995,-0.43191391675905577,-0.24127215372630334,-0.30048993219905434,-0.7169466818071675,-0.5308518156007594,-0.5735535799299513,-0.5016970316941138,0
9.125,2.1,2.4,4.8,6.975,8.5,32.425,17.65,678.0,150.0,150.0,308.0,458.0,544.0,2031.0,1077.0,20.0,15.0,14.0,17.0,17.0,20.0,17.0,19.0,-1.009204820982907,-0.6613372220762278,-0.38518689407695483,-0.20654778713283334,-0.669051183189361,-0.34839282498748464,-0.07716443096406282,-0.051515001585095664,-0.24664436463138298,-0.13425710701417337,0.18576046665240806,-0.1318074433365743,-0.19186486711385592,0.019347487876168693,0.17899141492794862,-0.2676959888707656,-0.5356787853189534,-0.5698424922997892,-0.38706081622226696,-0.25203924960303464,-0.326811417814482,-0.09200714539919484,0.026587709413326176,-0.33509070793078927,-0.5125749980502317,-0.31549046609876275,-0.37055957584101057,-0.43398734228575125,-0.40623814737249875,-0.5279495665539117,-0.06413898948347668,-0.016952495337064808,0
10.35,1.875,2.075,4.275,5.65,9.025,32.475,14.725,691.0,115.0,114.0,254.0,349.0,567.0,1879.0,848.0,16.0,12.0,13.0,12.0,20.0,21.0,16.0,14.0,-0.34476587022658184,-0.10984464178607092,-0.373778306856024,-0.2192578480141665,-0.4794462453960128,-0.2747306447777196,-0.40300366714334807,-0.3067819045757609,-0.16462429881322185,-0.12511735449051445,-0.22130147888472984,0.053516892591281444,-0.15948798951317542,-0.18787578282582357,0.002469324161344458,-0.1304746442516927,-0.21071026693918488,-0.14123607845405706,-0.15012909109308617,-0.27146906424840794,-0.11253946471990693,0.0528409676883292,-0.2321181768022409,-0.20456556814117452,-0.19023612548110921,-0.19512221073811503,-0.29846154517770607,-0.5083426887617787,-0.24609345159409715,-0.3762853894280206,-0.24148028681508973,-0.28640641922569654,0
11.375,1.9,2.25,4.45,7.225,10.525,36.35,15.225,737.0,115.0,134.0,275.0,517.0,649.0,2385.0,842.0,16.0,8.0,16.0,16.0,23.0,15.0,16.0,15.0,-0.634062857059417,-0.47534644761929956,-0.28399948286370363,-0.18499281597980657,-0.2760370163716834,-0.010095187751564198,-0.3335601620831244,-0.3419185661975125,-0.23425791379057104,-0.2301307862067055,0.09960145796625253,-0.15234746136903657,-0.4403507533507696,-0.5105552999513708,-0.3524549662265832,-0.40541540892440153,-0.6884562851764284,-0.46408929272148486,-0.1232818152286782,-0.28605980568117295,-0.266303281324633,-0.08116502033632113,-0.11674362160630594,-0.3837912512980899,-0.5253104529920936,-0.5461845793320664,-0.1508155911943318,-0.20672610373963937,-0.14102956355268711,-0.47994964498166104,-0.052262814917130286,-0.2314921027494045,0
9.85,2.825,3.35,6.7,7.225,10.425,27.5,10.125,641.0,149.0,187.0,388.0,465.0,651.0,1714.0,576.0,20.0,13.0,16.0,16.0,19.0,21.0,17.0,19.0,-0.6382794084667592,-0.5433527280941401,-0.4491624949761776,-0.4288966617850351,-0.09213198549765472,-0.2631910674373525,-0.2445092892235154,-0.270861874196982,-0.09377050840714657,-0.3156849113040457,-0.19181428210239806,-0.2828932521230871,-0.3435009179335751,-0.42495611481356077,-0.2680605311274394,-0.40333343260187365,-0.5160916771396479,-0.5514728817509374,-0.270760352001942,-0.3796023102673177,-0.5282095911237648,-0.22838842259501102,-0.4490714493278966,-0.3622446027818894,-0.467540798592172,-0.4081422614668491,-0.42561430683727236,-0.2705728860136606,-0.016853263826863224,-0.23916018117757326,-0.258946621281051,-0.12795639240326134,0
9.025,2.85,2.875,5.175,8.9,12.525,35.35,12.625,607.0,158.0,162.0,286.0,535.0,735.0,2113.0,738.0,18.0,15.0,15.0,11.0,13.0,13.0,18.0,16.0,-0.7502810467424273,-0.5176448558245246,-0.24919649608076894,-0.3141284875257812,-0.4298652107282856,-0.25686028789657545,-0.24662407535683137,-0.26561567679559933,-0.5763123573590498,-0.4609645707473647,-0.559094563585455,-0.4520575992834047,-0.41636676935548295,-0.4050370988157372,-0.5041214913801058,-0.4436370364325168,-0.5195404151906645,-0.49297091199819665,-0.3926395573108172,-0.2857530817198314,-0.10138739284310189,-0.039005047838924556,-0.25123175715768475,-0.2778146383316645,-0.24412762064945567,-0.21062464156605357,-0.23441440172928749,-0.2819053388299805,-0.22313948551131768,-0.4345709104410487,-0.1478528149552713,-0.24139281166334445,0
6.95,3.1,3.225,6.95,7.55,10.45,32.125,13.625,415.0,180.0,185.0,471.0,460.0,530.0,2080.0,957.0,16.0,14.0,15.0,19.0,17.0,14.0,18.0,20.0,-0.39589286812097046,-0.15102216687462175,-0.21392323402005248,-0.12551608062670752,-0.16063152028549815,-0.03105781839626603,-0.11815840320668598,-0.3498215926320586,-0.35079742522668284,-0.2433636934522542,-0.4248900406294154,-0.29547948560579984,-0.5142465772109319,-0.39273042360051674,-0.2543412884204825,-0.3976096707354886,-0.2621608556057503,-0.4440518855335428,-0.19334825904888858,-0.22336079199146477,0.014545152260583637,-0.13163198789425493,-0.15364803011501071,-0.13474157585513097,-0.6297885168127187,-0.3805369438660081,-0.2279030406977825,-0.05914576301263741,-0.508214569245449,-0.21230256076135334,-0.19702947543261154,-0.18074444476247792,0
9.45,2.475,2.725,4.975,6.625,7.7,33.925,10.825,641.0,177.0,180.0,302.0,468.0,480.0,1894.0,721.0,23.0,17.0,14.0,16.0,21.0,15.0,17.0,18.0,-0.7680691327884032,-0.4591446833307555,-0.2753555081689825,-0.30289659303360855,-0.6958698968813349,-0.10956159916536866,0.26552328786479407,-0.03089317042135951,-0.407885682770043,-0.031234202067897586,-0.040736507015132956,-0.27875294563137154,-0.37656528699455527,-0.25407692849990277,-0.14779268466245524,-0.16883276492970942,-0.7067338066919578,-0.3034174518064149,-0.11572986134854127,-0.3912816150836091,-0.38020895505935753,-0.46136410786618615,-0.11628058503806078,-0.2296476743235294,-0.19254257141718242,-0.5595838972210182,-0.0743001612195769,-0.48898002502886107,-0.47590815699587397,-0.24533503398801518,-0.344783943102713,-0.29984043377175945,0
9.5,1.425,2.3,6.35,7.6,10.25,32.85,11.85,639.0,86.0,131.0,314.0,500.0,628.0,1731.0,707.0,15.0,7.0,12.0,16.0,17.0,20.0,13.0,18.0,-0.6336472223218339,-0.5798239097767678,-0.3722357798799843,-0.4633848407928828,-0.19871352540631573,-0.02260981121213541,-0.24077947523460028,-0.18027801758793682,-0.07514971875293648,0.06300264894251174,-0.2206255621171596,-0.19889266276530784,-0.11002099617268515,-0.3008574165897216,-0.35875837861580906,-0.19333238761809185,-0.502330782358991,-0.2205548127615045,-0.03633435815877528,-0.4109328331980421,-0.21765935943946924,-0.17139404985710693,-0.1006299587049588,-0.272217704541229,-0.1709768855719176,-0.5148284152956979,-0.24424221801718116,-0.42889507236573976,-0.30979150574376424,-0.42193469523913846,-0.27617145361862294,-0.31622463744552953,0
8.875,2.025,2.6,5.5,7.45,11.7,35.4,13.675,615.0,117.0,167.0,348.0,525.0,796.0,2281.0,868.0,18.0,18.0,19.0,17.0,20.0,18.0,20.0,18.0,-0.7540387645717106,-0.6064347568033067,-0.45868639725109955,-0.5074457302725083,-0.410918333214731,-0.31908104226302786,-0.36037206108365,-0.40209363028336065,-0.3377202791164086,-0.058540574449042974,0.06376229721891188,-0.3118089734382105,-0.48496259214218446,-0.27117546476755283,-0.4585711796119668,-0.36389099831248695,-0.5712779051729764,-0.14234806871025882,-0.6518617745014826,-0.45758565771682547,-0.5254090078638572,-0.2300202087043641,-0.09207767611054886,-0.2709965576058095,-0.4950008622836935,-0.2993146203387827,-0.26763398394999416,-0.20623950453819623,-0.2876915917605498,-0.21846131165311145,-0.26295823130260143,0.00185833788841896,0
9.875,3.0,3.275,4.875,8.925,13.725,45.575,18.625,623.0,149.0,200.0,275.0,618.0,926.0,2798.0,1264.0,17.0,13.0,15.0,13.0,18.0,18.0,18.0,18.0,-0.519653107509941,-0.27104262955195535,-0.056405603469196514,-0.06575779243415762,-0.27810543264583,-0.5099915465907222,-0.47779862142606033,-0.19268546802934128,-0.639886162839924,-0.5812285659140445,-0.6000731447684396,-0.38531450676022555,-0.31678267329827847,-0.2108668454975839,-0.15759259809944312,-0.08072677265491993,-0.6749157625104363,-0.4894585463241273,-0.583015878889455,-0.15349852420185742,-0.5319116640750766,-0.5029629194492655,-0.16944956546735865,-0.42118409530775297,-0.5988263269875752,-0.6203576406841005,-0.26837805241568563,-0.26745024439424075,-0.7292665371349724,-0.5899030997898622,-0.5255811982773749,-0.4696851530021744,0
11.175,2.525,2.45,4.175,9.1,10.1,47.0,16.425,770.0,153.0,143.0,269.0,587.0,582.0,2715.0,1029.0,20.0,14.0,16.0,19.0,22.0,18.0,16.0,18.0,-0.8309492689264711,-0.6635688402263387,-0.5333174155315527,-0.4123976767767888,-0.2495431457230152,0.11788321594583279,0.17035689257273468,0.05652893395658675,-0.06065894922713222,0.1020590394682458,-0.08811761509564975,0.06428241228014075,-0.1964962286798518,-0.19447573183881012,-0.07368341215950629,-0.30091427405974935,-0.9584246673254803,-0.9527312556173636,-0.7469903200134602,-0.34997398087451576,-0.38792646048846663,-0.3577868340373564,-0.4478396839722034,-0.30110106901043193,-0.5742068752135157,-0.720238084936904,-0.48420882712972646,-0.5185019920079393,-0.501253849904359,-0.20195572732591083,-0.16612966169434354,-0.13231533671993234,0
12.025,2.175,2.75,5.825,8.225,11.575,42.45,18.775,797.0,101.0,154.0,415.0,560.0,765.0,2846.0,1200.0,17.0,13.0,13.0,18.0,18.0,19.0,20.0,20.0,-0.7206989299134027,-0.6042747793034838,-0.5025643994742496,-0.48823545370110455,0.1563641242571297,-0.19481626508955757,-0.05014865983168582,0.17796291832359037,-0.16951582648153096,-0.08813405121150937,-0.18671678483998227,0.04272334081976735,-0.5597614344457209,-0.29822134859524346,-0.237798934513175,-0.22588484932743091,-0.7893638335886722,-0.465138314675772,-0.2825446240344201,-0.09200401450115185,-0.5878192652025885,-0.6184617805114583,-0.3843351459466832,-0.5142012916846852,-0.6354733598236377,-0.2589586724042445,-0.17647444424584596,-0.20549463517349872,-0.6220915446923898,-0.12087491412705167,-0.12329458067837151,-0.2209073795572541,0
10.2,2.45,2.65,5.275,8.45,13.925,44.475,18.775,679.0,150.0,171.0,333.0,520.0,866.0,2585.0,1157.0,20.0,18.0,19.0,15.0,16.0,17.0,17.0,18.0,-0.5668647207986445,-0.34096101483750585,-0.3350096937162091,-0.4085120345658257,-0.39312393203606977,-0.2726005705615334,0.15764802264583724,0.05973051102504354,-0.3665165798009364,-0.24216178824170972,-0.026646567015167624,-0.11025549496411133,-0.3630004990436621,-0.35390731231191,-0.32851399876884113,-0.15940339662398026,-0.6197446480963704,-0.3147178410685196,-0.38690180027448107,-0.32040754674356103,-0.29671329756205816,-0.6073347391831637,-0.07436338225407008,-0.3881693545865247,-0.3301133602830907,-0.32308055881975595,0.01916557579098921,-0.062401655577472334,-0.4819442751962364,-0.30237708832187593,-0.13043845049332498,-0.08992047456475608,0
8.8,2.15,2.275,4.625,7.475,9.425,41.325,13.8,537.0,143.0,134.0,278.0,508.0,564.0,2565.0,912.0,16.0,17.0,11.0,15.0,19.0,19.0,17.0,18.0,-0.494687328748281,-0.36186005904065477,-0.0856936307224378,-0.26485651741227895,-0.4239650018348684,-0.2774638994516956,-0.05299571172904031,-0.09050364559387604,-0.14710317593564295,-0.07805387611696288,-0.012740193519326584,-0.16430112984999434,-0.3269857791921204,-0.19236963351585745,-0.29581305291707594,-0.14487578039601562,-0.6876537169578935,-0.1189369370188049,-0.03191915298134956,-0.1941982980873482,-0.4267330279575996,-0.5088118386065409,-0.34716526947261817,-0.40739384956025765,-0.6102289696576838,-0.8145672840498834,-0.4414692713867944,-0.5401232664209009,-0.22500278313996208,-0.32660198380422356,0.23948666661780962,-0.31372107817516676,0
10.175,2.4,2.2,4.325,6.575,8.1,42.575,14.975,722.0,147.0,138.0,296.0,434.0,481.0,2778.0,1022.0,23.0,15.0,16.0,18.0,18.0,14.0,19.0,17.0,-0.8678456344930843,-0.5191445757686689,-0.2886540439173452,-0.16037964771968227,-0.3429027996402105,0.0201905099728488,0.2117761532663178,-0.15799075103051038,-0.3593589530614754,-0.08706985044085928,-0.19808950418737648,-0.007795761032098628,-0.48455105147076216,-0.05827278385201227,-0.31348387976371783,-0.27196107236054357,-0.3853233465992321,-0.31790213501803993,-0.2813660628567888,-0.4006175785820034,-0.1313057951132263,0.12049568810577675,-0.10660700388301234,-0.3030918224400791,-0.41492973262120136,-0.28442204503194957,0.005269206764559945,-0.3478990081047827,-0.29140421542349404,-0.1814576741588661,-0.014155891753234352,-0.47010043366862153,0
12.425,2.775,2.475,5.4,8.4,11.775,34.525,13.65,904.0,170.0,140.0,345.0,529.0,574.0,1833.0,927.0,20.0,10.0,12.0,16.0,14.0,11.0,11.0,15.0,-0.7878301276586291,-0.5140821349416285,-0.5455469742857992,-0.4281214791625961,-0.3727476445743498,-0.3093762305114569,-0.11954503892231863,-0.263092237432574,-0.1252160938938179,-0.34093214396384863,-0.20649599359903995,-0.10015704139234462,-0.22153840392052454,-0.3341696331007539,-0.22725199413569355,-0.3182545916977145,-0.30320134358052747,-0.3250127236707965,-0.16327980894861155,-0.17263162256528017,0.2179521005015674,-0.33258323066476614,-0.014236708454419848,-0.32306572777153036,-0.15317379689275307,-0.4400288261155149,-0.11350896696991764,-0.3578498152249065,-0.5757922084266021,-0.4535398065901589,-0.4006381938536682,-0.3043430411966144,0
6.425,1.875,2.2,5.625,8.875,9.25,35.625,10.35,441.0,97.0,126.0,375.0,579.0,507.0,2117.0,621.0,18.0,12.0,11.0,14.0,21.0,13.0,20.0,17.0,-0.8986180225874889,-0.7242653655229591,-0.5029662794329334,-0.2895127435315707,-0.05142933390122312,-0.46509144157574556,-0.2388612762101508,-0.2520724330415715,0.06022853208540543,-0.4314962151595642,0.021488012683686275,-0.2804100394048503,-0.35090364243335975,-0.41456020344832367,-0.04986406317272659,-0.3517658135929775,-0.5330029732986945,-0.1858039966215362,-0.024826237910464437,0.10120295505614926,0.06482776571245466,-0.18903977335692296,-0.004936704080157788,-0.2450909865878524,-0.3995744731074294,-0.26104367132370115,-0.4238279522861607,-0.2079581634567309,-0.33310442949125785,-0.37327606785604334,-0.3027889168573427,-0.17304305888972668,0
9.2,1.75,2.0,4.475,7.85,7.8,34.55,9.8,662.0,110.0,120.0,284.0,519.0,486.0,2122.0,544.0,23.0,11.0,11.0,13.0,20.0,16.0,19.0,17.0,-0.7419535543154151,-0.5042201741210948,-0.3237969329426733,-0.29417196295715203,-0.19911131296193366,-0.0819979786575582,0.1469891491685844,-0.17445323461975137,-0.18128087938161896,-0.32737548898097424,-0.14911499046822324,-0.3118117387668259,-0.4278341054013718,-0.3377279247030789,-0.3988265713597488,-0.3254289950105413,-0.4981080400006301,-0.4488802803660358,-0.2312260005561303,-0.5208862306952343,-0.14369593241440679,-0.27336185236180915,-0.12913909698039414,-0.3457593223920538,-0.4957518397240211,-0.432988651434635,-0.5156351862294063,-0.34912655350895855,-0.32509204564400396,-0.4222839231815459,-0.4786510718574163,-0.2174153502804705,0
8.975,1.925,2.25,4.075,7.975,7.95,28.4,8.65,570.0,124.0,137.0,263.0,510.0,502.0,1809.0,552.0,22.0,15.0,15.0,16.0,17.0,16.0,17.0,18.0,-0.5900928417768081,-0.47043600253568457,-0.2603370344476746,-0.24142965423889948,-0.20124910711239719,0.20376017624713194,-0.13548358963166202,0.03949417388395469,-0.30320073896329297,-0.09593467064058726,-0.13948205000530894,-0.12562206314811952,-0.46793135032144234,-0.31176352326512224,-0.12657771441662236,-0.006353685856728332,-0.528988518328706,-0.45461893653632623,-0.24878063393713132,-0.22492623287484606,-0.36468649342329984,-0.15987623057724895,0.07280948541476664,-0.0732577798239224,-0.5614331258496669,-0.4208928524205424,-0.47931316487488596,-0.2633202050554743,-0.5925973153104857,-0.4199180140883767,-0.28822915360644696,-0.11186804915392379,0
6.175,2.325,2.55,4.375,8.85,13.95,29.95,11.8,390.0,127.0,136.0,215.0,583.0,759.0,1733.0,749.0,17.0,15.0,14.0,10.0,18.0,10.0,17.0,18.0,-0.34266468930229643,-0.2687507566508846,-0.2515627347300754,-0.12423303499996265,-0.1713192856589271,-0.23776772852613592,-0.1654054179817052,-0.1013518380562806,-0.03126345668530945,-0.2327229113267565,-0.05470849820439547,-0.23226076272672522,0.15781039054080112,-0.0977919036836107,-0.11190486094826392,-0.12310581613913205,-0.5367583544608466,-0.5745981805374434,-0.40479519778596346,-0.35588693330830495,-0.004641317310351994,-0.43735918176302235,-0.1489069018612455,-0.22390880464774993,-0.14012010511057182,-0.3169344875443181,-0.2621804977375685,-0.26680705270716243,-0.2787226847992975,-0.2867541513224448,-0.1657150747290496,-0.40548335709384675,0
5.2,2.475,2.6,4.75,7.225,11.75,32.6,10.2,326.0,117.0,144.0,261.0,450.0,641.0,2030.0,594.0,14.0,10.0,14.0,14.0,16.0,12.0,18.0,15.0,-0.40078805487359104,-0.18332424075437706,-0.32638824397523947,-0.3379335229396084,0.02833208847878487,-0.10879227096586074,0.008028801357510296,-0.27651377326659643,-0.05478347811563977,-0.2424277944743168,0.19684920375809786,-0.16311408837045782,-0.058349460447838834,-0.3953052659929041,0.07206124763233851,-0.06774233207409851,-0.4355272229730522,-0.35783628702631504,-0.40250115108727846,-0.2897764060066269,-0.05243162151223699,-0.27341166278626783,-0.2685810148725893,-0.19720588034769906,-0.2595417585086991,-0.28962217980741567,-0.12859031204347515,-0.07216215327273907,-0.23357333336308425,-0.27092491849272154,0.0038607324516324692,-0.056751258316880084,0
9.925,2.2,2.875,5.575,6.25,8.175,28.4,9.725,687.0,136.0,169.0,352.0,419.0,422.0,1607.0,622.0,15.0,16.0,20.0,20.0,18.0,12.0,16.0,18.0,-0.7297859288607808,-0.5067075817739496,-0.4421077435042099,-0.5040103314210408,-0.25230598299562285,0.046700322254901,0.09307359440966669,-0.3026166111139574,-0.34185420017446266,-0.06956498357044251,-0.34252264223538265,-0.48971876141144244,-0.16991517193003813,0.0016936346445329358,-0.07106524896035916,-0.7171193525408837,-0.5211265306389954,-0.10436344038698843,-0.37250191202054667,-0.34069611760131757,-0.03357275226845754,-0.22852720589968073,-0.3013705516363115,-0.09662834880443827,-0.22966674546825372,-0.2100067100288284,-0.29786028889812033,-0.28820626972217434,-0.3715163666743732,-0.43682953765831734,-0.18632907494914097,-0.35087181969115533,0
12.625,2.675,2.825,5.275,7.15,7.575,28.95,12.25,823.0,174.0,194.0,357.0,466.0,517.0,1805.0,824.0,19.0,16.0,20.0,20.0,18.0,19.0,17.0,19.0,-0.7688510562472163,-0.8360753819865802,-0.4923604803979639,-0.49404668595238915,-0.5322860442959735,-0.1263410681215113,-0.3084392360770082,-0.37497816579252874,-0.6365719102849593,-0.12093535092477126,-0.37362380113504007,-0.43861532750338605,-0.6508177823054299,-0.3540224958767296,-0.3672661678312911,-0.3887071569131774,-0.7604636730786969,-0.647989658554449,-0.18213192223046692,-0.05426284917831392,-0.3478948726683405,-0.3075560503238937,-0.34862059018359565,-0.059754038601064374,-0.594793619552615,-0.48702560305217735,-0.2741700624463863,-0.4015038923495164,-0.6616874643032228,-0.4381701848762783,-0.04133736457890929,-0.1829637077351136,0
12.15,2.375,2.55,3.825,8.925,10.2,40.175,13.425,751.0,148.0,162.0,257.0,621.0,578.0,2573.0,903.0,18.0,14.0,11.0,12.0,17.0,14.0,19.0,21.0,-0.7286828840951788,-0.6638766371697601,-0.5461406791676482,-0.2584927187192851,-0.41677503980321196,-0.1322798879009238,0.27449510423331164,-0.1333818138531634,-0.32909986926367935,0.025985378162238573,0.07982263984070442,-0.33029556510436453,-0.48555729159388833,-0.3232735878744355,-0.10960842706931088,-0.18133191213235736,-0.8249107083176771,-0.5131182596238977,-0.21211830363619386,0.015169114990228438,-0.1047470020272535,-0.06287988081516291,0.081101593924606,-0.18971594243315937,-0.774316118356517,-0.6835075169565433,-0.542480083845578,-0.29367145925090954,-0.6837337023980844,-0.6124559079927538,-0.5659436742779546,-0.4580834174283426,0
8.725,2.0,2.1,4.075,8.275,9.675,31.75,14.775,610.0,112.0,136.0,289.0,585.0,567.0,1987.0,1050.0,19.0,11.0,12.0,16.0,24.0,14.0,18.0,22.0,-0.7562691463126451,-0.6181555008538261,-0.4279949051671113,-0.38513697469829444,-0.39253181053611486,-0.24633478215811733,-0.2803771678657488,-0.16854983255774128,-0.4850510489402863,-0.05108162493085884,0.022074024272959167,-0.1629792097820325,-0.5436337526782045,-0.2391383669145883,-0.428973676959917,-0.41691226284991006,-0.7295867747404928,-0.5971658630013552,-0.4443972169704998,-0.4412014048084302,-0.47936105171332555,-0.2675006028467679,-0.47449796312232306,-0.41777741727805495,-0.7442601980343025,-0.6516311969997111,-0.41469353147430243,-0.23500083947449146,-0.7635676397937323,-0.1965395226327898,-0.34362132531019607,-0.2583148675320537,0
10.65,2.325,2.1,4.325,8.25,8.05,37.1,16.825,750.0,123.0,119.0,214.0,549.0,469.0,1815.0,1124.0,17.0,15.0,12.0,13.0,19.0,10.0,11.0,22.0,-0.7145972101841364,-0.4839491641416832,-0.4413726602992745,-0.2600590441707082,-0.028411782658902873,-0.3712496246639432,-0.18791039018632322,-0.1358748444044069,-0.10407194877426001,-0.0025081415675265034,-0.3661827454214666,-0.2550603687934982,-0.013560833528935414,-0.3029605387650724,-0.22744661701751215,-0.5226629731823731,-0.34600879854451927,-0.3652256818979176,-0.16120601723933853,-0.633293453629362,-0.2611258781195102,-0.14201903279115458,-0.2318297546383988,-0.3484167983879951,-0.046468636589360506,-0.6508344384087362,-0.22208842070585819,-0.29454077297071046,-0.6074823456079521,-0.43310276698254185,-0.3620507778914266,-0.3601359294581512,0
11.65,2.675,2.45,4.375,8.675,10.3,41.025,18.425,743.0,159.0,135.0,231.0,561.0,535.0,2214.0,1154.0,18.0,15.0,13.0,11.0,19.0,14.0,16.0,15.0,-0.698762253123702,-0.5147829541697051,-0.4835039806061669,-0.3008638724238438,-0.16912961859163197,-0.14261913336310095,-0.11074569859414014,-0.1929220136778277,0.030364069853246797,-0.31120975724401956,-0.02334558093954786,-0.10142495189300899,-0.0027594163449726748,-0.2157504355516589,-0.1901903216601432,0.006517117730186308,-0.37314715214348476,-0.08196210453753398,0.045528327901785653,-0.23124595290492686,0.10001860416325574,-0.17960802871119896,-0.002987474441344802,-0.30304889565290055,-0.27264501724500323,-0.4896906378571249,-0.46869197922289546,-0.2101818560496376,-0.4666394981827282,-0.46470381786810494,-0.3779616397575043,-0.2710801612188885,0
11.625,2.25,3.15,5.575,6.7,9.6,32.825,13.65,755.0,149.0,182.0,332.0,412.0,560.0,1848.0,806.0,20.0,17.0,16.0,18.0,16.0,16.0,17.0,17.0,-0.6944972108985202,-0.5036105160725792,-0.3874538215592579,-0.178568003921779,-0.47543394297003605,-0.21160371168400693,-0.10463093558906195,-0.13297953469282117,-0.5094761182503847,-0.2658345167584496,-0.4745869375885929,-0.3269426340961428,-0.4438175549027873,-0.17989290950940418,-0.237914773769154,-0.035448214583239504,-0.33940453649126573,-0.24082353633446368,-0.20573244480077865,-0.15588350398205764,-0.09124374450150206,-0.3437918395584009,-0.11530836909520233,-0.12668275175748747,-0.2293192769447428,-0.3889245713655019,-0.13844238379541252,-0.2889100735245149,-0.12457002780417288,-0.2324612831487212,-0.16853594926396095,0.06346115874069999,0
9.05,2.1,2.225,4.55,8.425,9.325,25.35,13.075,585.0,137.0,134.0,266.0,610.0,641.0,1554.0,763.0,19.0,15.0,13.0,16.0,21.0,17.0,18.0,15.0,-0.47480020724059946,-0.4207045173963982,-0.23281624474466484,-0.290015252616131,-0.5299962744003675,-0.36002167024092246,-0.14029812544003067,-0.0587745897089234,-0.559754753251659,-0.44296598814235705,-0.2206423368866023,-0.21503628622459003,-0.21683355525690767,-0.18129171791123166,-0.18368988416567983,-0.22580544706081987,-0.6084945690852684,-0.1399663939933204,0.009157036346984636,-0.16621202935119386,-0.25638916092751446,-0.14838623733190598,0.089424009272928,-0.3874237688396147,-0.26264885481708183,-0.22478941579773923,-0.06335305731684805,-0.2462477590566565,-0.3727742027240276,-0.1609459483633998,-0.0778704042104429,-0.17325809120182406,0
9.125,2.525,2.85,6.45,7.55,11.275,35.075,16.45,573.0,168.0,174.0,392.0,495.0,632.0,2156.0,1080.0,15.0,16.0,14.0,17.0,20.0,14.0,13.0,16.0,-0.38847705474310995,-0.3471779869185023,-0.31628648385445063,-0.29839107254734437,-0.41538636284967356,-0.27368400532861886,-0.16711198079171938,-0.03433589874442214,-0.17367019759996502,-0.3294177852942554,0.003455414619262966,-0.2093154969097009,-0.3416857367387636,-0.3754127538582561,-0.29080220900260645,-0.32761742692391005,-0.36179208171937827,-0.07306064482162926,-0.12145285442087482,-0.1559931825890311,-0.20460641571896518,-0.25532108411235765,-0.3205116085590866,-0.06895842091238451,-0.42832544356455593,-0.3292384624753013,-0.31740849150292566,-0.15337618567468503,-0.5941672296745114,-0.4877596972813964,-0.34230993159422124,-0.2544117625108126,0
8.3,3.025,3.55,7.375,8.5,11.45,38.275,17.575,518.0,175.0,185.0,453.0,515.0,690.0,2022.0,1138.0,17.0,10.0,12.0,18.0,18.0,20.0,11.0,19.0,-0.3862613908370168,-0.1816553031982591,-0.2902199112728799,-0.27318665329525066,-0.1608457610253765,-0.1868330496642162,-0.07716970249292045,-0.18795235037366712,-0.11020578850251074,-0.3222231657928745,-0.12338487585993192,-0.27736333499415905,-0.4012087418623843,-0.3341982597870837,-0.32292269780525,-0.3158617225850258,-0.27220188960289854,-0.17106630584367882,-0.17826522866832611,-0.31861127456517946,-0.31048373870815654,-0.377489275413448,-0.31266274004432104,-0.28437449327555736,-0.3575234817861594,-0.4644199062548179,-0.3638034514487283,-0.19781239138457815,-0.6225255446666135,-0.4958227650080576,-0.4366876275790352,-0.33282575912992723,0
8.425,1.9,2.675,6.95,9.125,9.975,31.775,14.075,503.0,110.0,157.0,448.0,592.0,580.0,1843.0,887.0,15.0,11.0,11.0,19.0,22.0,15.0,17.0,16.0,-0.3030505017908259,-0.26226820482706864,-0.3258948594853705,-0.09144182123920651,-0.2778886088593653,-0.23024735361482468,-0.2683877524178624,-0.0118996322738272,-0.35133454925246643,-0.25259642578596186,-0.14237489414637564,-0.17002115322378694,-0.4509131261114895,-0.25448368808564775,-0.24781674365867243,-0.29331230899166055,-0.5346109013668451,0.028347380463416557,-0.13159178265875307,-0.12724420814660262,-0.35315610101786726,-0.14747550255632175,-0.15043380002894613,-0.2572575814345018,-0.5123896819545543,-0.5128372155903832,-0.3640890247324114,-0.038767221858872145,-0.5047384542512715,-0.5642430301274397,-0.40732422962104875,-0.21594605122111202,0
7.95,1.85,2.025,3.9,6.55,8.15,28.85,7.8,510.0,98.0,116.0,221.0,435.0,492.0,1469.0,474.0,13.0,12.0,13.0,16.0,19.0,14.0,14.0,16.0,-0.49067939286358275,-0.37194245735941206,-0.29452204188743364,-0.31010428991613526,-0.23669444600690945,-0.38727925228040466,-0.30346500299760715,-0.2681242412973812,0.015439196304210073,-0.29222034705699795,0.010636543370889446,-0.3654298964989995,-0.14758040996798974,-0.3368285181144766,-0.2820867556917963,-0.09636549202497392,-0.40291945091017745,0.14209413991322506,-0.13615174456709078,-0.03118500801640453,-0.23887755242562725,-0.024183867987126878,-0.0637728587244076,-0.2764693894687949,-0.08092773006127288,-0.11480147183638237,-0.16024870843075684,-0.08002729195152097,-0.381610384905082,-0.5361525108858828,-0.23365941372424895,-0.2249670443488679,0
8.975,2.325,2.975,5.15,7.725,9.975,34.65,12.0,620.0,138.0,176.0,326.0,522.0,545.0,1864.0,741.0,19.0,16.0,19.0,16.0,21.0,15.0,16.0,16.0,-0.5250824219109607,-0.36262845207597616,-0.39803795980948514,-0.311006934253176,-0.318970724550786,-0.3284284540980516,0.05635847709893392,-0.24595985483473218,-0.23422805820893816,-0.3905913672386928,-0.08454551497823619,-0.26023639546585636,-0.37649301873847546,-0.3624770141516383,-0.19440583203973436,-0.3477890523951094,-0.4596060914561784,-0.0750224670780514,-0.16323546228927255,-0.23388135506292226,-0.14228251964066055,-0.13406323689799907,-0.25804632144210604,-0.2737996017597002,-0.13341832694677613,-0.2188945792144157,-0.24805063266464306,-0.3128869927622051,-0.3854763885707748,-0.29681914576547563,-0.11148103551726943,-0.3741097733367257,0
13.55,1.825,2.625,5.225,8.65,8.875,38.45,15.175,959.0,110.0,177.0,265.0,565.0,469.0,2204.0,1123.0,17.0,10.0,18.0,12.0,20.0,14.0,13.0,20.0,-0.762486223472524,-0.5926593725730401,-0.4199938264842924,-0.4316990796008783,-0.24423874468282622,-0.181709408705469,-0.029303060560707455,-0.3564895654679773,-0.4622797998238035,-0.4279981949833158,-0.23294104344057967,-0.28837978995522295,-0.10993364818146283,-0.3915373644789427,-0.3640593567544603,-0.238480426496431,-0.4740635636418636,-0.36869502944205496,-0.23310532203870532,-0.401715202723592,0.024376042904644703,-0.31903555936258415,-0.05632353069198619,-0.40274532452302225,-0.3735537682190315,-0.13162567523243174,-0.39999735713152007,-0.2902688898384099,-0.6094966404787132,-0.127085983367137,-0.09173763327912714,-0.22096934024914583,0
14.6,2.55,2.625,4.925,11.725,10.175,49.25,13.6,946.0,128.0,134.0,255.0,831.0,556.0,3111.0,901.0,18.0,11.0,10.0,16.0,19.0,16.0,17.0,16.0,-0.42547445365131814,-0.2790961564363918,-0.123568291307025,-0.19296839612572245,0.007872152999802618,-0.1919170643656745,-0.09314289048155792,-0.1565588787224773,-0.10392422772828773,-0.2208261084386793,-0.3817313604014495,-0.2333216113271758,-0.06843045710696684,-0.12463371339983702,-0.17242914363288972,-0.19046840660080003,-1.0235969824656528,-0.6005118723045518,-0.5002061609481772,-0.36317152079841813,-0.3327189145157935,-0.41115274620582404,-0.4544672382813762,-0.35486360866148453,-0.6366093663653597,-0.7506143718523346,-0.5096642130279215,-0.6032478369318885,-0.8085831298297137,-0.43227649657881434,-0.1812173124402111,-0.05111470944912932,0
10.525,2.05,2.225,4.55,12.05,9.275,48.225,16.25,718.0,109.0,116.0,249.0,810.0,506.0,3072.0,1082.0,19.0,15.0,14.0,16.0,21.0,17.0,20.0,21.0,-0.6067500246276804,-0.42196322292083005,-0.36755025803661046,-0.2622261118698182,0.0693740908670239,-0.1549222561302969,-0.0015637473621124879,-0.18868287954158797,0.052500234733743746,-0.0012431178550317184,0.09681899014507936,-0.183573801775622,-0.05055418378144575,-0.07151060403131257,-0.24518939328551953,-0.035472414354568695,-0.8680433532348991,-0.4349532808394812,-0.03395729742293746,0.07513830215895824,-0.30760899627203286,-0.34697356899995047,-0.45786959004177824,-0.32387648114379075,-0.5313627576349569,-0.25331745014502677,-0.3312686140590489,-0.18861294071053084,-0.3329945534932776,-0.16493653017180443,-0.27717065455397744,-0.08037148953533345,0
6.2,2.525,2.675,4.775,10.15,10.45,58.85,17.475,434.0,154.0,156.0,266.0,629.0,581.0,3624.0,1192.0,22.0,18.0,16.0,14.0,18.0,13.0,19.0,13.0,-0.6626776831650435,-0.49911762960806505,-0.4402033370241995,-0.149136985675034,-0.2057190906232455,-0.1384306952175332,-0.12321761120422489,-0.11768133813453699,-0.09973256253741146,0.0413397166240353,-0.14826571855487447,-0.03306461211423403,-0.24729981981575494,-0.2878884391438968,-0.428341417501559,-0.19894644228350306,-0.6208323874448373,-0.3789740365225016,-0.21480959322486523,0.08993421593070788,-0.37525687052903,-0.3075736617671595,-0.5742345574883222,-0.3338389704077803,-0.5325445335956038,-0.5081112304868973,-0.3677571058879132,-0.5417385962388519,-0.521970616292963,-0.29131195605804333,-0.3524137855767232,-0.47502320290683964,0
8.625,2.575,2.9,7.0,7.75,11.5,62.925,17.925,604.0,164.0,173.0,384.0,525.0,631.0,3499.0,1143.0,20.0,12.0,16.0,14.0,19.0,15.0,13.0,19.0,-0.8340602905205985,-0.42387154522749776,-0.3897201547014175,-0.4159764524100745,-0.21220469679225595,-0.09301439858771679,-0.11284424555691823,-0.03183141449524934,-0.35144299066245915,-0.3335436415253928,-0.42546763117655123,-0.2887005438362317,-0.4093628559206954,-0.5225863744025366,-0.4907255757068729,-0.6396301648324917,-0.5350210566285499,-0.324775818256485,-0.2280490192444293,0.11764795836476602,-0.342519701841325,-0.5714870408590336,-0.4408652387402881,-0.5406028833319845,-0.42502358923485817,-0.6807511353319459,-0.3947319114862503,-0.679125548925606,-0.5653657697118796,-0.5430653166246878,-0.41116958086862576,-0.5461721938278449,0
9.5,2.725,2.925,5.6,7.675,13.8,64.25,23.75,610.0,174.0,192.0,358.0,446.0,795.0,4011.0,1460.0,20.0,16.0,18.0,21.0,16.0,14.0,19.0,18.0,-0.5516047900860594,-0.5606331291854704,-0.3828430587518836,-0.3868162275534448,-0.49555362673412273,-0.4373489413559272,-0.16554009820805515,-0.26900632273103403,-0.5255965612989971,-0.445573353764023,-0.2522399380554098,-0.6653138570914818,-0.5268058930823163,-0.6176208427529932,-0.3447925732022564,-0.5367355303003177,-0.39886602873639065,-0.3720691121108039,-0.5082711195291169,-0.27754742151341494,-0.46633635006326657,-0.5038581793786673,-0.46582335446015277,-0.3007005436296427,-0.5117970419788034,-0.3682785902137183,-0.2221537271248777,-0.26930930626684724,-0.3093492221945481,-0.22044894119967157,-0.18521757871764508,-0.2956978876564793,0
6.2,2.35,2.6,5.0,8.175,9.825,55.45,23.075,405.0,133.0,146.0,309.0,528.0,542.0,3610.0,1535.0,18.0,14.0,12.0,15.0,17.0,15.0,17.0,22.0,-0.479713751806267,-0.4789252802906439,-0.17242712780212557,-0.3281928022091977,-0.11368123303089013,-0.14454629762412619,-0.3113515398703876,-0.2638566717169002,-0.23276346408640894,-0.2806900163388299,-0.22782280821570688,-0.30912270506929723,-0.33929979635352425,-0.11425475116523064,-0.19151557232259064,-0.2034869837907361,-0.5084133532237021,-0.40083870874600935,-0.29956912963560467,-0.24731490900667985,-0.4084136347299234,-0.46969520448157653,-0.3046601178051774,-0.1321612044165562,-0.654307524379407,-0.6642670555083493,-0.24720624466339286,-0.10226927593374702,-0.34699137265977903,-0.14990866255909086,-0.09780779389515054,-0.4933604230736646,0
8.275,2.75,3.075,5.325,7.725,12.0,55.8,20.7,555.0,143.0,178.0,320.0,437.0,666.0,3477.0,1385.0,18.0,11.0,18.0,17.0,18.0,18.0,19.0,20.0,-0.49805662153033115,-0.11696192920952048,-0.31827013297749496,-0.34053629527553214,0.2072061407079736,-0.3995940075147025,0.09925224904728104,-0.012451436243492955,-0.042297164745892166,-0.42360603507467937,-0.008935610897285026,-0.2854558339980309,-0.0523382625511034,-0.4040621182522712,0.11028249009854794,-0.27852627861423335,-0.179549351239259,-0.5051800010654681,-0.1824525484798742,-0.3366528084339873,-0.18110274814363006,-0.3864827722977301,-0.2396550342193231,-0.33305754553105965,-0.520571944997078,-0.2479240100048513,-0.10894310269438255,-0.11043265182423488,-0.6248988596785778,-0.37733542236130757,-0.22305246088142142,-0.22232669748093423,0
8.2,3.05,3.125,5.9,10.45,11.2,53.575,20.925,559.0,175.0,198.0,356.0,641.0,554.0,2993.0,1399.0,16.0,17.0,14.0,13.0,16.0,11.0,17.0,20.0,-0.6498702543713287,-0.4356391958079191,-0.5433416003266665,-0.21781585940185416,-0.23830295719014058,-0.38536249555867796,-0.13506857158953514,-0.08795934368444955,-0.329929540097436,-0.3806334477244827,-0.29309216586701037,-0.3453783644323637,-0.3759327241751472,-0.5620283676723736,-0.3132737828246518,-0.48411252372624114,-0.779472442228649,-0.6590133850445387,-0.7302850419396482,-0.32783873559195476,-0.13334151370794897,-0.4911795488705009,-0.39081577707772214,-0.3464495536744339,-0.32451919856455214,-0.22977017874216787,-0.3532638347391517,-0.15052717784225217,-0.504395733808393,-0.15037611975331402,-0.26617204587732296,-0.16440281828507197,0
10.125,2.7,3.0,5.625,11.9,10.9,48.325,18.55,651.0,159.0,173.0,325.0,804.0,639.0,2820.0,1240.0,14.0,14.0,14.0,14.0,20.0,20.0,18.0,16.0,-0.6504977449581872,-0.5480215438378847,-0.3952255851517744,-0.2799629404532276,-0.24015042432513936,-0.2831855302622765,-0.1098245360915754,-0.3624244678516018,-0.3705324131735357,-0.468844312701767,-0.3319531743937364,-0.6875754748201417,-0.27768997861546285,-0.5662770709104107,-0.26824878197369284,-0.6605281818307273,-0.984281900900131,-0.8109734307901599,-0.6720138775664153,-0.3049497363749104,-0.34857151894655714,-0.3987738193793641,-0.6541036618684485,-0.14150944093230264,-0.48750243917841407,-0.2481079849685918,-0.5799385346798379,-0.3712868876785461,-0.508543204775313,-0.3781132341424252,-0.2478970013615754,-0.11518676551253473,0
9.625,2.4,3.275,5.375,6.475,12.925,53.55,21.375,665.0,152.0,213.0,345.0,408.0,723.0,3057.0,1499.0,20.0,15.0,18.0,16.0,16.0,15.0,15.0,21.0,-1.027852225803883,-0.8748412730605728,-0.47154365873195175,-0.29553248121115466,-0.336996791971052,-0.12131893541219894,-0.17622197916566743,-0.33476820176696287,-0.3781527584887588,0.050933576313817744,-0.08577042596306284,-0.250895638467592,-0.32762403007515184,-0.03833520233294368,-0.23073357656566593,-0.32875851314029353,-0.5116311138622084,-0.2818945875078774,-0.030400856336408513,0.10381725641998207,-0.2606168357517871,-0.40772438354189755,-0.4070705737892958,-0.3110021040141981,-0.41840083048826143,-0.19667815562134913,-0.3844556521484445,-0.33277176730385916,-0.6151283299044696,-0.2041412319295914,-0.24710078199596203,-0.2263451513204507,0
10.025,2.325,2.05,3.875,6.625,9.3,46.2,15.675,682.0,141.0,134.0,248.0,423.0,562.0,3134.0,994.0,20.0,11.0,10.0,14.0,19.0,14.0,15.0,15.0,-0.8433760584840182,-0.7314783579942444,-0.36695784937274517,-0.24100294924395593,-0.3941224167261099,-0.08249914292295471,-0.33739635957450603,-0.3974345416746344,-0.40866589136784925,0.014133223116304458,0.0035125016926808414,-0.33383490341900107,-0.16467609003496878,-0.26740329661517476,-0.27150753619118645,-0.3257307717690179,-0.521883413375087,-0.19668876021779022,-0.3864223274457349,-0.32390938971805,-0.3082047017967671,-0.42114621839438593,-0.31364146828606215,-0.009330869400379168,-0.765659874662731,-0.6529407797380787,-0.4490600331824795,-0.348116432499258,-0.29450231314269637,-0.11220010362608698,-0.2937895346029605,-0.1378364456700638,0
10.15,2.0,2.625,5.575,5.525,9.65,40.325,18.375,682.0,121.0,159.0,340.0,356.0,539.0,2501.0,1184.0,21.0,15.0,17.0,21.0,18.0,17.0,17.0,15.0,-0.6232160394720401,-0.4016656974222832,-0.14558906511550912,-0.06182075901651729,-0.37852595321735877,-0.2528709995066213,-0.10926411563962563,-0.10342354437816094,-0.4544602209191217,-0.41682291636928287,-0.33013810181884307,-0.32640246336306517,-0.42700015476325764,-0.4610229643439266,-0.19939384783017808,-0.38585192619633024,-0.3638358294834043,-0.41178417719762417,-0.135495750147392,-0.19192653465605228,-0.279620282290487,-0.47056271143721773,-0.3702793947283423,-0.44102298211119867,-0.5899438681832726,-0.5593480700796384,-0.5458206719937634,-0.3799993279750311,-0.47388094559890853,-0.32385600354468363,-0.13381611815853692,-0.1540625379422528,0
7.675,2.3,2.55,4.525,5.15,7.825,41.275,16.175,515.0,122.0,134.0,239.0,366.0,472.0,2517.0,1016.0,18.0,9.0,13.0,13.0,20.0,22.0,21.0,19.0,-0.846163631475555,-0.6569139021709532,-0.11950929084407887,-0.06317772782991639,-0.1796038127626322,-0.21538314968523717,-0.3018605835356473,-0.09617615157802983,-0.12440753277541775,-0.35344762151319353,-0.0969562230271224,-0.009669837006242299,-0.004589690679114263,-0.2953371742984509,0.13834112921982347,-0.2600538529262255,-0.5818832477361601,-0.2152107774767561,-0.23358455254512112,-0.09093636059263767,-0.21829005502237697,-0.25271234056981934,-0.1740891862359467,-0.2642595890398602,-0.641150017296213,-0.5325934259220096,-0.510571270255777,-0.27533762873736795,-0.4208539246266342,-0.19971006564791424,-0.1568164808274395,-0.09326466340070631,0
6.5,1.45,1.675,4.0,6.525,6.85,33.225,13.5,368.0,88.0,103.0,255.0,431.0,405.0,2199.0,838.0,17.0,14.0,14.0,16.0,19.0,15.0,14.0,16.0,-0.3181482489788282,-0.35788471391282,-0.1781390980043716,-0.304736445939327,-0.24338246767686428,0.03167678377688808,-0.030890416877245974,-0.05317207033225664,-0.35424787203666275,-0.23711274530268492,-0.2943320848778938,-0.1235439024585385,-0.5088973200326915,-0.2912504096455234,-0.5137617861666807,-0.2141240820204802,-0.6117576584782781,-0.4150851793162309,-0.27649853920859846,-0.36161509552477156,-0.246701392261057,-0.07508234244533313,-0.4582557650117817,-0.44780906767423945,-0.37309148762613314,-0.03291707219350335,-0.1353301303090305,-0.2880963331591737,-0.36921043772870893,-0.18660939944830107,-0.1653718214985004,-0.2733910113562045,0
7.725,2.075,1.9,4.05,8.525,10.125,37.7,12.9,516.0,146.0,131.0,239.0,611.0,550.0,2368.0,847.0,22.0,23.0,17.0,14.0,19.0,14.0,17.0,21.0,-0.5030484943774295,-0.1375104635371164,-0.24982338120115694,-0.12816652785123175,-0.5390689246831851,0.11510676990504934,0.19156232153512928,-0.06861100179442427,-0.4743783137329311,-0.04901022285954608,0.07188619113885313,-0.26170614247297347,-0.12306580243837323,-0.2161091908641499,-0.02479742016542322,-0.043700308372153183,-0.5629655368144835,-0.07857601634967588,-0.17415359603251554,-0.19797167956706163,-0.17849306313090135,0.02934968792155332,-0.28403250679712694,-0.45946213597265434,-0.31477353472726094,0.18706639463627442,-0.2297415179454628,-0.5833361628973208,-0.26697102012380586,0.0468136735615218,-0.2085707868474002,-0.18700851497065935,0
