0,1,2,3,4,5,6,7,8,9,10,11,12,13,14,15,16,17,18,19,20,21,22,23,24,25,26,27,28,29,30,31,32,33,34,35,36,37,38,39,40,41,42,43,44,45,46,47,48,49,50,51,52,53,54,55,Gesture
16.325,12.95,5.875,4.55,15.625,23.15,8.45,11.725,1029.0,802.0,379.0,244.0,995.0,1474.0,578.0,736.0,16.0,19.0,18.0,11.0,20.0,18.0,21.0,18.0,-0.3879003093472078,-0.2561639479450312,-0.3444862611029779,-0.08771404157193015,-0.16416490876444273,-0.19287867666934286,-0.08258308658156496,0.019746283797593214,-0.25586870839892517,-0.08810929725633046,-0.0462305779997415,0.3914565835851799,-0.014329294695489091,-0.23971292511259512,-0.15914496791587607,-0.19192456155226562,-0.3027158815378533,-0.2571987443053331,-0.09855012447802766,-0.4816441086505581,-0.5395070862482443,-0.27272636425371466,-0.4718087979268292,-0.2801957377144487,-0.7949822462796406,-0.4887099931940109,-0.27472651326167236,-0.11670626783639991,-0.31217305637374243,-0.01015325060297539,0.1595182591479884,-0.1320357157145261,2
13.1,16.35,4.125,3.925,12.275,20.275,6.525,10.175,787.0,929.0,269.0,219.0,840.0,1301.0,433.0,697.0,16.0,17.0,18.0,15.0,18.0,19.0,19.0,20.0,-0.08694252448534688,-0.16542704306109327,-0.2517953585279866,0.00670618717463527,-0.0548450347578187,-0.1232133746511222,-0.18752961483642902,-0.21244822058479243,-0.19236713286896664,-0.1183071832981373,-0.22670913648914023,0.09965902291202207,-0.3405573445397906,-0.45016570647115267,-0.15223472638851898,-0.19732430517000968,-0.44443019320251825,-0.11351602502287379,-0.10600680266221778,-0.25051709669778677,-0.36671236265270796,-0.24216586315776384,0.03992588145795411,-0.2305931793640272,-0.7140989879178864,-0.5485651737450318,-0.18948110184796488,-0.27341422449677355,-0.515287468889995,-0.17621052942880788,-0.06644067523525378,-0.11528062790598118,2
14.275,16.525,4.825,6.125,12.55,23.9,6.575,9.55,980.0,960.0,285.0,328.0,771.0,1578.0,406.0,586.0,22.0,13.0,13.0,15.0,18.0,21.0,15.0,15.0,-0.17794313334845235,-0.17108568901009855,0.05145207454152798,-0.08479490815632063,-0.04560849713439513,-0.006658555079101918,0.04727826720512859,-0.07424367891630294,-0.4619818452680831,-0.3907622893460546,-0.09505881711048983,0.050523198220076504,-0.4146937238573218,-0.6485200561960655,-0.18039807010484435,-0.13977134724114343,-0.4639744657702132,-0.3044052539815808,-0.25944203729643645,-0.14017731863502073,-0.4167642145788594,-0.5144951032120395,-0.0909740946358357,-0.4084004898370334,-0.29155269091911473,-0.09106589919985379,0.03370167343422006,-0.2937815800290637,-0.1563410527348888,-0.20088259993387822,0.09066438111428189,-0.0861832788318529,2
16.6,14.425,5.325,6.175,16.8,29.6,8.425,13.35,1062.0,716.0,371.0,392.0,1150.0,1959.0,443.0,872.0,16.0,14.0,18.0,19.0,19.0,17.0,15.0,19.0,-0.2962493716387448,-0.2603363906319697,-0.4564462854415513,-0.2712300618893183,0.26612578891060124,-0.25950325008810776,0.0037674269349340533,-0.012546592178619654,-0.5858476576820527,-0.21756586288916832,-0.00595205992337098,-0.11756080161233026,-0.531283282586465,-0.2779489742176255,0.06841140779202137,-0.016645786358090713,-0.6792719476773511,-0.5385130464132335,-0.7007281483168796,-0.27968397285288277,-0.5399961941848059,-0.645101433632247,-0.16054913781324795,-0.2680927208767412,-0.07677070983657514,-0.44588617484226284,-0.14706760472174268,-0.28402696135129085,-0.324676263768776,-0.09442231206065953,-0.03996631059245448,-0.18329581614374452,2
14.175,15.125,4.625,5.2,14.7,29.475,8.625,9.075,923.0,859.0,230.0,312.0,1047.0,1966.0,507.0,549.0,16.0,20.0,13.0,17.0,19.0,20.0,16.0,15.0,-0.2935163950742106,-0.1762997163108772,-0.3162373633589423,-0.23552068916086752,0.019315052669546456,-0.022212692975036984,-0.37526949107665586,0.004303004984507976,0.2762798342007686,-0.4210274945989929,0.1502193773482079,-0.3225777512431968,-0.3342661087916006,-0.34543540647497956,-0.3286411831625034,-0.35945952906995554,-0.5523807487639517,-0.06555021123478014,-0.22280194892338856,-0.09113823086499165,-0.5567705501890634,-0.41796088500137585,-0.39884774829757036,-0.15620096236121964,-0.326034402760376,-0.44005037696506244,-0.2718403577866048,-0.2642902458860828,-0.43935063440260114,-0.05368227066101138,-0.4502960861681513,-0.44274977103424434,2
11.4,13.55,4.85,4.325,11.3,22.05,10.1,8.45,701.0,870.0,291.0,257.0,670.0,1628.0,689.0,471.0,16.0,20.0,18.0,18.0,16.0,24.0,22.0,14.0,-0.2696176559805642,-0.13408718508241932,-0.08738421339224157,-0.34119997228158927,-0.3993752144338084,-0.109934787055817,-0.03329061677529114,0.08115497923808977,-0.23545453937126884,-0.1655345470683834,-0.15505507211304687,0.11899792544164321,-0.47984121734854834,-0.16465216974863253,-0.40920520076389705,-0.29777574395071127,-0.23942160607006696,-0.0793776480846374,-0.24252350952057108,0.0065938769061193656,-0.7479673694348287,-0.2434792132709219,-0.02159283453345445,0.03732488638056315,-0.9124751895264961,-0.6540364757544244,-0.43306401795317606,-0.34918519790015484,-0.34236038529726565,-0.4522024219107135,-0.38166549897131385,-0.3656674973762146,2
14.1,14.9,5.1,4.45,16.125,17.725,7.975,9.675,1026.0,1015.0,273.0,290.0,1090.0,1209.0,458.0,591.0,21.0,20.0,8.0,15.0,14.0,20.0,14.0,18.0,-0.292529312385023,-0.12986489161274123,0.08614280680100773,-0.16050557418410144,-0.5498996807114316,-0.2630968057213964,-0.07859505398434306,-0.3363923848933045,0.17807006652331064,-0.18416097487587854,0.025581708270483085,-0.031096506650816865,-0.40898189367674714,-0.3236841220881666,-0.280425066138627,-0.19388496211551232,-0.5600747039410724,-0.30701062744749225,-0.21356547043668297,0.001281113659500186,-0.8610335624045461,-0.6962825934697865,-0.4206021705794242,0.0038961878421902847,-0.32984209956922933,-0.2933007363668314,-0.07453690062761413,-0.21973517976728046,-0.28763760405568367,0.16053757549984032,-0.08561091859419667,-0.40715971796945905,2
21.85,14.425,5.6,5.85,14.075,23.425,7.775,11.35,1479.0,910.0,299.0,380.0,865.0,1565.0,424.0,821.0,19.0,17.0,16.0,17.0,18.0,22.0,16.0,24.0,-0.47847098977112246,-0.5313205787609732,-0.22934581442207694,-0.29496041513698734,-0.31826977820493774,0.03200352298821017,0.30742432797636016,0.018242645875777456,-0.13581419945086518,-0.309904039519979,-0.28579387748253926,-0.022795589292735594,-0.4728419322447063,-0.26457304971116774,-0.4185651518686341,-0.42961971658995685,-0.23535573392077086,-0.25343990710381226,-0.006075662392303409,-0.08741248088954907,-0.6004992082277537,-0.36095400941670397,0.03156171510360283,-0.1395147726130182,-0.21349988060621347,-0.2984976832449054,-0.012252249523392593,-0.21598615831251844,-0.3903615809341135,0.23454232995404792,0.08078463571870612,-0.33364779636032715,2
18.4,16.7,5.275,6.275,11.45,22.0,10.65,8.925,1143.0,1012.0,324.0,391.0,760.0,1509.0,695.0,584.0,18.0,17.0,16.0,16.0,19.0,21.0,14.0,20.0,-0.34938020698787847,-0.28292780141929996,-0.12456367946228153,-0.04090003455439395,-0.18521695424701007,-0.004742462860279341,-0.08356091925061444,-0.05904824086809146,-0.2185190166029115,-0.29616551083933407,-0.1954080292588982,-0.3699976986577704,-0.4239864282323349,-0.3392111685622198,-0.5793938322264452,-0.3391240168740624,-0.4585453898089952,-0.13802067644122065,0.1576782407165225,0.05622913786809222,-0.5991637510606712,-0.4120029945169101,-0.02949473795062369,-0.06814217739947906,-0.38502562569277243,-0.45486217885507824,-0.2371926326643019,-0.41616943903238846,-0.32764977143888113,-0.22326723572718324,-0.27851075309253553,-0.21412993342216774,2
18.25,14.375,6.1,5.7,11.3,22.225,10.1,14.25,1027.0,948.0,363.0,339.0,698.0,1399.0,700.0,869.0,14.0,16.0,14.0,15.0,15.0,19.0,26.0,15.0,-0.10796631477881934,-0.32168359099308386,-0.08598698160440917,-0.3105006130847872,-0.4264715967132491,-0.31041867285864183,-0.40007543571112747,-0.12277915056177785,-0.25848259555847464,-0.09192488266454153,-0.2084139717465113,-0.2143571822447919,-0.20432394588344382,-0.15581276476733685,-0.28289087212418296,-0.17097747041334133,-0.20901353217669957,0.013639974797813795,0.23374953158559988,-0.10683812694329418,-0.6368328247209579,-0.33532166299379396,-0.009578330080870742,0.15419721578555112,-0.5748291847860024,-0.10907632368158802,-0.3512463275070639,-0.5229832310716608,-0.4563868393853862,-0.44242236632804444,-0.2712769295329205,-0.2457783747595153,2
16.35,14.95,6.55,5.575,16.35,29.075,11.175,11.85,933.0,886.0,390.0,343.0,1081.0,2005.0,794.0,825.0,14.0,11.0,18.0,15.0,20.0,24.0,20.0,24.0,-0.07984578112487192,-0.151851737230785,-0.20807608572841724,-0.039395462046355086,-0.3241508813724847,-0.40136397743876334,-0.33592290027797983,-0.16861575824748193,-0.18715924873173637,-0.13128898977154668,-0.09779637398880825,-0.31106610639739973,-0.25313905440825374,-0.4465872481171554,-0.17212616150555368,-0.5730451634368391,-0.4427638379297341,0.29771717488885696,0.27034430308861573,-0.05979079962129739,-0.4612236910336222,0.04356718420091532,0.0023496306153657377,-0.18852255210725707,-0.47997032113931654,-0.02809167398843093,-0.1573856640968047,-0.05898421213539077,-0.9071086371585207,-0.5490937475189976,-0.4064455400159192,-0.19732468286226268,2
17.8,14.6,6.775,4.625,17.85,21.0,8.8,8.025,1105.0,820.0,418.0,294.0,1171.0,1348.0,581.0,523.0,13.0,12.0,19.0,16.0,16.0,20.0,18.0,20.0,-0.3240502796770383,-0.2872962906478931,-0.2952709938449558,-0.31975252907399626,-0.1931120709479569,-0.23999039428880314,-0.39108691983860305,-0.13055190951911946,-0.48697269749349864,-0.313809550556278,-0.22922743813127963,-0.133724662919252,-0.3914571189030184,-0.34475176331910456,-0.15373571963506827,-0.351849043890678,-0.5707958671775549,-0.36376352914023086,-0.3062250540503637,-0.45831042198251004,-0.43883537589470484,-0.3182002882414945,-0.08800153276769013,-0.21722243404656605,-0.40492603010487604,0.167982952555357,-0.12894623656373438,-0.27683303747025173,-0.7305226093500137,-0.5055703136602019,-0.703160703158735,-0.5599440335461064,2
17.4,16.275,4.325,5.175,14.475,21.675,8.025,9.275,1197.0,1000.0,266.0,319.0,1024.0,1438.0,450.0,636.0,21.0,15.0,17.0,12.0,20.0,22.0,14.0,17.0,-0.5553796487843324,-0.33611254973436755,-0.0410380558448434,-0.2013955677471247,-0.12735726130104197,-0.48199951677692204,-0.1988685390350837,-0.3356131297655155,-0.45553628997403744,-0.21663024653533372,-0.13209421405407468,-0.30025843049379924,-0.27803457638028745,-0.7712132110280726,-0.20036168515584513,-0.4533360809971394,-0.5473524010259665,-0.23233848585167977,-0.01297626835645336,-0.22407215887083853,-0.4718375508133086,-0.3937436555355223,-0.36518646792249604,-0.15420439830315966,-0.33206572442674764,-0.29003882110491447,-0.14230300704812338,-0.16979806390695185,-0.3227322263034266,-0.21580786682497693,-0.3034552762495404,-0.23283799853100715,2
20.9,18.025,5.2,5.675,15.575,21.55,5.8,9.575,1255.0,1129.0,325.0,367.0,1002.0,1457.0,372.0,598.0,15.0,17.0,15.0,19.0,15.0,17.0,17.0,16.0,-0.4351296040073816,-0.47591406651052515,-0.23834473909586296,-0.3018637412406995,-0.3662325862236964,-0.29404025577510184,-0.29558727566569754,-0.14638945927172653,-0.3994152522354196,-0.19714825851512902,-0.35076696070392377,-0.34734902609711715,-0.3131867843074284,-0.44765687867781495,-0.05311661441540084,-0.4127578413860621,-0.41151297365440187,-0.4816210243699359,-0.27634940748218473,-0.36127853643005986,-0.4434066503899471,-0.4114448647509802,-0.30904499767979465,-0.5525363988727626,-0.593857044704049,-0.6466272451352895,-0.4721354908747648,-0.3148829808602216,-0.24111426005976094,-0.08106975462682678,-0.14204896028072478,-0.11456884058246493,2
23.1,15.625,5.175,5.475,16.25,21.7,6.875,10.0,1527.0,953.0,311.0,304.0,1010.0,1249.0,452.0,645.0,22.0,14.0,14.0,14.0,18.0,18.0,14.0,19.0,-0.8084776717392655,-0.5278562436509361,-0.49126214597833795,-0.3488528032113997,-0.35988199734095805,-0.18841222958788723,-0.13747111241251941,-0.19017226493142628,-0.0637202062586069,-0.09907561198834007,-0.048753325711937884,-0.14284151148184393,-0.024192861729681433,-0.29608591092516356,0.07385021937629746,-0.43825433308110323,-0.43553548863745467,-0.27072966594743164,-0.25343895615699763,-0.21456844772375022,-0.26178339645453896,-0.3182417210994036,-0.3727504531873484,-0.2576325462797398,-0.49222288117512203,-0.30210083862089865,-0.40265928366777465,-0.46339422251816575,-0.335218971420155,-0.1981548968745285,-0.030436691002319386,-0.005880338880959895,2
19.8,16.525,5.9,7.35,19.225,19.075,8.175,8.825,1370.0,951.0,380.0,374.0,1248.0,1051.0,535.0,532.0,19.0,15.0,15.0,15.0,17.0,14.0,19.0,14.0,-0.8039285323016109,-0.4779106021720083,-0.11018380207266432,-0.12763813312901176,-0.16472800247429248,-0.04569679157246517,0.08542438766849748,-0.21912715860645027,-0.23330753066477386,-0.13021213112106572,-0.23621298535838536,-0.25768798970732276,0.09838117175950141,-0.6053615442087078,0.061323942855078625,-0.3923774142332482,-0.5895105911863242,-0.14813975201355145,0.17149264899686678,0.26805486455387073,-0.2358019346072473,-0.39414525774482567,-0.1630127659103486,-0.45399854684286245,-0.3998096978193518,-0.08334196453997664,-0.07125586501702538,-0.22508022978126638,-0.2713373504099327,-0.2538910506149221,-0.0783446000006437,-0.28303928548601254,2
17.625,16.675,5.6,6.175,15.1,17.875,6.775,8.925,1042.0,1052.0,317.0,304.0,816.0,1023.0,489.0,559.0,15.0,17.0,15.0,15.0,13.0,17.0,17.0,19.0,-0.48919792839140824,-0.4102353392248248,-0.44996364950781703,-0.19848214678918347,-0.46134423763447685,-0.20060527731375175,-0.33787415074738764,-0.3225123107493585,-0.10765511317938033,-0.30234271526138484,-0.1527010323715955,-0.52042226015555,-0.011715497312793028,-0.25928903018626576,-0.24829670411954682,-0.2987902317376263,-0.1419659834157743,-0.11839615200075745,0.05759426906262094,0.1101014289077492,-0.19452145842286714,-0.48822411265584303,-0.12145004184092793,-0.08274192292140138,-0.49581436707173565,0.0647705825434155,-0.1753955957600742,-0.15040840143604023,-0.502772155060731,-0.44559386750837215,-0.17923091049121356,-0.22730345193058826,2
18.225,16.625,5.375,5.6,17.75,17.975,6.375,7.55,1243.0,971.0,305.0,331.0,1198.0,1043.0,438.0,465.0,24.0,13.0,15.0,17.0,21.0,16.0,19.0,15.0,-0.4931045671094005,-0.10325122437324698,-0.39190142630886715,-0.4712516460722687,-0.1188209034569673,0.11435216375264655,-0.5210213369478695,-0.1390650614151537,-0.32178001750499097,-0.29622117286887434,-0.5562165611676745,-0.3956954666317503,-0.3582429209896756,-0.4101442682181285,-0.3943900197032488,-0.3622619087889075,-0.5027757438754491,-0.1986592410725402,-0.09761738128268817,-0.05032950563301704,-0.11834096913353383,-0.09134431735393253,-0.15417244276638917,0.08667907372831564,-0.3999019301363601,0.0136363671587043,-0.312675987385653,-0.25568813726824235,-0.48727540839258904,-0.3314855855430115,-0.3424373946513508,-0.10993449836697006,2
17.15,16.3,4.7,5.95,11.5,23.3,4.975,6.925,1110.0,1111.0,285.0,356.0,783.0,1471.0,314.0,346.0,16.0,22.0,19.0,13.0,16.0,19.0,16.0,15.0,-0.37664803042919914,-0.31473908601641676,-0.32937073295281444,-0.0650763860153819,-0.5947143210171387,-0.36759541360355424,-0.2234148566845564,-0.019015170741870317,-0.22601462182508025,-0.2505131055798483,-0.32465424183120584,-0.046203505785698,-0.23598644369249983,-0.315487000910794,-0.3051528982816617,-0.3754345374718895,-0.5836170530015841,-0.3975144013582494,-0.3337913827360572,-0.10468410736688537,-0.46573431363572504,-0.3518107104714284,-0.29775567803611747,-0.18291640552098246,-0.36367917376674874,-0.17822848179219408,-0.23894661613286644,-0.04531529172645913,0.2054055941738667,-0.15957373138964545,-0.1068891722471019,-0.08781614106292802,2
18.9,21.4,5.075,6.825,15.6,21.775,4.2,8.5,1173.0,1362.0,245.0,376.0,1042.0,1269.0,269.0,552.0,16.0,17.0,10.0,18.0,19.0,18.0,16.0,19.0,-0.2362007447185941,-0.5545221463567631,-0.17715978455865347,-0.10224458220541524,-0.3753431254492229,-0.04470851242680193,-0.13239976704696993,-0.23725466245560617,0.11886764233602926,0.10734117909059522,-0.09753173385193196,-0.13598268130749713,-0.2237960737493954,-0.2570082856363161,-0.3115010712287463,-0.4271432446589193,-0.8501285255435563,-0.8711439923396191,-0.5842200000013745,-0.42372771174424334,-0.3947217808860326,-0.4995223036291023,-0.30880564060674914,-0.39189704014511995,-0.17896519227827856,-0.2483755257874716,-0.1355555495369724,-0.17863722612372998,-0.4742394536394792,-0.20970021521175322,-0.13760039944921929,-0.12216373883331164,2
16.925,26.2,5.425,5.375,18.25,25.8,6.4,9.475,1045.0,1941.0,329.0,308.0,1306.0,1606.0,413.0,586.0,17.0,23.0,17.0,17.0,23.0,21.0,20.0,19.0,-0.4251171914308246,-0.16599361634492676,-0.09059576106363096,-0.03921037424299384,-0.6103656981888275,-0.32052783550650693,-0.3319714892567153,-0.34377714422267464,-0.10403349440189458,0.042922640568617776,0.21340128309644388,-0.3171481554373182,-0.31425756966110496,-0.16256219380537237,-0.06515580669591951,-0.16967725433621159,-0.7525535860440261,-0.40315762015081896,-0.26516371329961014,-0.31187990357414724,-0.7017305210456047,-0.4352086094791644,-0.40051816709700944,-0.31331086058180235,-0.5087851943796221,-0.4427176203181641,-0.16490439481639987,-0.44584187443579587,-0.41262371931129327,-0.2559333725091035,-0.2298868229890346,-0.1694111933092914,2
22.0,18.575,4.35,4.6,14.2,26.325,5.55,11.275,1446.0,1351.0,284.0,303.0,873.0,1830.0,326.0,819.0,18.0,17.0,21.0,19.0,18.0,24.0,14.0,20.0,-0.5993103992375828,-0.3766635205983302,-0.17602278637175797,-0.10268127897248146,-0.5312545258535266,-0.19317126210498944,-0.1747232679044624,-0.2325967091094633,-0.26353954211933445,0.0035377235961764125,0.14880445548956328,-0.05083442548955532,-0.7009574321066231,-0.39148802240843683,-0.4602406013527753,-0.31298356233058294,-0.48832689332747803,-0.434572896768972,0.08480194724847365,-0.1048602495751064,-0.8686160237417179,-0.42282367023203227,-0.27336914455366557,-0.12313162005232865,-0.25698047901331833,-0.3377072825451146,0.14086812387843056,-0.21577349310899702,-0.49919315803864517,0.11830615204963155,-0.1288538400866998,-0.32549392037737934,2
16.275,14.3,5.25,3.875,14.45,15.275,6.275,9.75,1002.0,932.0,307.0,237.0,970.0,875.0,350.0,669.0,19.0,14.0,11.0,13.0,22.0,15.0,18.0,19.0,-0.5362354421518342,-0.3881459362161694,-0.2724507908083293,-0.05333482240244833,-0.44878152526576975,-0.3712356520020651,-0.05949552829074834,-0.08234638892426857,-0.14761686069246854,0.03721837773134497,0.02910503787204151,-0.35121351956826646,-0.4022218000705593,-0.3151157673854898,-0.37020507025151184,-0.324201386452108,-0.3028567604694017,0.014952267435308645,0.09604244069137904,-0.1430021229074399,-0.11458801623253985,0.03712072476160369,0.08458312216367969,0.1393350828238263,-0.23068046163440153,-0.1679641735211498,-0.1433961194846891,-0.31809034001096675,-0.4285093710640815,-0.08438087468089586,-0.2723518138826492,-0.09498294734443731,2
19.55,16.25,4.975,4.5,12.925,22.1,6.825,9.725,1311.0,1157.0,284.0,271.0,767.0,1344.0,464.0,658.0,19.0,21.0,16.0,16.0,18.0,19.0,21.0,16.0,-0.4627153543358564,-0.25823563409042105,-0.3898431036018473,-0.12165050690119909,-0.6147421677276182,-0.2913811940665043,-0.012604408527517874,0.09935515241271017,-0.2174273891747794,-0.07767949383453314,-0.07952310930803869,-0.13030076395354673,-0.4844299203133925,-0.5359371008206235,-0.3283266057263964,-0.4068523724189038,-0.16933237629267578,-0.19846520429057574,-0.06394046554795775,-0.0190922481010991,-0.2934504330105485,-0.13603038851754476,-0.0577485736315557,-0.26669433493370837,-0.2884181276174863,-0.176489346797519,-0.06978323099365327,-0.20885103551649672,-0.40403513914311345,-0.2584436294756635,-0.12021143704377399,-0.27423708108330175,2
12.975,15.05,4.675,5.15,12.5,17.4,7.65,12.65,873.0,1017.0,280.0,311.0,789.0,901.0,497.0,803.0,21.0,13.0,16.0,16.0,20.0,15.0,16.0,17.0,-0.5327140839724906,0.015841130404085045,0.1301971417611949,-0.041513856405754584,-0.4778898490097955,-0.19613285760840485,-0.16472199994793973,-0.1013221336085049,-0.18923782907366504,-0.19570719463441574,-0.14336294216957124,-0.022036520292028957,-0.46329292075203515,-0.2717665388768429,-0.5169751106128395,-0.3539305027130731,-0.48208881568492806,-0.15282970595426063,-0.08607006998044653,-0.03706461606143356,-0.15506164985348506,-0.26201518428354087,-0.167274320835101,-0.12852771059573917,-0.3847537376518876,-0.17654362299523282,-0.22387809443425438,-0.34615409124763735,-0.2917058823914417,-0.35278193181545253,-0.12977995129222608,-0.5108040537191806,2
18.175,14.75,5.95,5.15,15.275,21.625,7.875,13.575,1320.0,934.0,352.0,322.0,1082.0,1246.0,463.0,897.0,22.0,14.0,18.0,16.0,21.0,16.0,14.0,17.0,-0.8273015821047814,-0.3529146083802939,-0.23193952131634066,-0.3405677532540434,-0.35774253646630855,-0.44287143889260283,-0.24300466720944774,-0.5244907738227945,-0.31320600077425986,-0.22552084104227332,-0.36285102295642435,-0.13914339741543783,-0.6036226619593547,-0.5057031470839062,-0.7394168186613326,-0.34406924825449664,-0.6434512015250428,-0.37621987653150313,-0.15337397047521842,-0.2239450148762859,-0.4343096288658208,-0.03171776449889499,0.0455407363119914,-0.017972156997567438,-0.3532366739483168,-0.18982267527031094,-0.31702162679590035,-0.06861174175147008,-0.29421050121502895,-0.10236533907348787,-0.05957231556123311,-0.2966816649199911,2
20.275,14.325,5.95,5.0,14.325,28.525,9.0,10.05,1274.0,955.0,324.0,309.0,987.0,1859.0,530.0,643.0,17.0,17.0,12.0,18.0,22.0,18.0,13.0,16.0,-0.5038973893342863,-0.46017144727426523,-0.1402801018195756,-0.24830746876934368,-0.4564159800783924,-0.13614248560943137,-0.08704573630121262,-0.2651655125013855,-0.4501887353405078,-0.3808127536727027,-0.5843703385361836,-0.48090317975662716,-0.37214642481819554,-0.6141914818728941,-0.21565580627296754,-0.4868735565972128,-0.3987764720454194,-0.06349520531169564,-0.19764554146262986,-0.07987144362792435,-0.4246319920509178,-0.23434742502158315,0.04203111276943365,-0.04794411660582133,-0.2883010490459682,-0.2972377892171302,-0.3498984670329584,-0.25620529530704156,-0.4014035364281486,-0.04032037946687467,-0.06844959496471047,-0.10941967989016596,2
19.225,15.475,6.175,5.75,13.85,28.4,8.7,10.8,1324.0,1015.0,377.0,341.0,976.0,1728.0,501.0,705.0,17.0,17.0,22.0,16.0,23.0,17.0,16.0,22.0,-0.5842251845345213,-0.24534535701923105,0.17546709882685071,-0.014925718638848635,-0.5064217191323926,-0.46019561921143604,-0.3114716798631739,-0.2134300211331867,-0.37484024355851653,-0.25963386884532125,-0.17905393625689695,-0.2474338899627784,-0.2575479993409145,-0.5840672389091192,-0.06711133662625872,-0.4457191824064442,-0.6180753995671207,-0.10468681184768854,0.03849929940191242,0.10775003890950446,-0.346228403338205,-0.2700934278384117,-0.3756126293278856,-0.19819169079451068,-0.3575508590468549,-0.26559667665615283,-0.3454467349073118,-0.09563080902656025,-0.4932502095656977,-0.33785115777471947,-0.09929492348695378,-0.16675606501965423,2
18.825,14.875,4.375,3.975,12.875,32.1,10.675,11.425,1110.0,936.0,240.0,235.0,877.0,2193.0,574.0,783.0,18.0,16.0,13.0,19.0,20.0,21.0,17.0,15.0,-0.2605531222884978,-0.12522433914296544,-0.1862824166926436,-0.3823604000678643,-0.46436464950915024,-0.3082703343031839,-0.3731359146942765,-0.3044281351941127,-0.11620872992320767,-0.13281892112332247,-0.16069499443522248,-0.09457237393038753,-0.1527100633661017,-0.2508798705520962,-0.09623384252102588,-0.2511553352903747,-0.5506793040845257,-0.21474208568201417,-0.005847483630828295,-0.06986748769504521,-0.6323792958835317,-0.1476628599030777,0.0006895620903644769,-0.004288230380065107,-0.08123753397981263,-0.1363126991112392,-0.23191263659144712,-0.013816477874466396,-0.5459517040515645,-0.16753362348272954,-0.10362468308706349,-0.2067065396909301,2
19.75,14.8,4.125,5.15,11.5,26.5,9.025,11.275,1207.0,896.0,250.0,336.0,641.0,1732.0,594.0,676.0,19.0,19.0,16.0,17.0,15.0,22.0,21.0,15.0,-0.24149559861936418,0.04349615361665717,-0.19135393774101458,-0.25755006762319904,-0.17180946850121082,-0.1945448702960828,-0.13540880694622223,-0.15922498889477968,-0.20314426827588067,0.13962553758012206,-0.05762925568994923,-0.24619224558054179,-0.5166348904658458,-0.35826364841079433,-0.39345298459044725,-0.4511077955900048,-0.061357323195239157,-0.06692852753989505,0.04563624460660134,-0.16872620317638518,-0.4331057254895445,-0.020751729949086264,0.12318032185702843,-0.24344841877383297,-0.5458163513812508,-0.24625259396300364,-0.19198873211821774,-0.006598282581882874,-0.3152512689389739,-0.06466294291898395,0.0028758504066800634,-0.020442913390606415,2
23.575,12.625,5.925,4.325,15.2,25.05,8.3,11.6,1513.0,698.0,413.0,285.0,1054.0,1545.0,552.0,699.0,19.0,13.0,18.0,18.0,20.0,12.0,20.0,19.0,-0.42782760717131824,-0.24468687798671743,-0.22234497435414158,-0.26688313472028,0.036271086511179565,-0.361181627953754,-0.021022905276680465,-0.1826422623794519,-0.5980502041233646,-0.11445499458600521,0.0567162187839952,-0.09705783292438894,-0.5429299114728806,-0.8269525155515655,-0.273064645238468,-0.4821478413257721,-0.5943117498950061,-0.029401395912459622,0.14244915698002783,0.0731264913524113,-0.2628891838458842,-0.22406352475142527,-0.4625866883857167,-0.23155745685119913,-0.49842904640245267,-0.11784389120945073,-0.4457056808223092,-0.5891763436250539,-0.4867856826758971,-0.5370345494996078,-0.2650440358474797,-0.3802237505054608,2
16.4,9.175,4.5,4.4,12.1,23.725,8.975,12.875,1059.0,588.0,247.0,262.0,784.0,1362.0,621.0,854.0,16.0,16.0,16.0,13.0,20.0,16.0,19.0,18.0,-0.4476897747047996,-0.12874164100013105,-0.21880693346020075,-0.19749860134817368,-0.134853324032087,-0.1353168055816358,-0.06257266446241484,-0.31396727587723955,-0.20755041609531308,-0.2021483863856511,-0.19271953010237894,-0.09590326692818099,-0.20935191884731466,-0.23210056277272575,-0.19400208425422658,-0.24852856861474143,-0.41260146101243134,-0.2028357949939506,-0.13297780236315349,-0.09263662276762803,-0.2673830942114339,0.03977544010701632,-0.22439741881746564,-0.22413166141089944,-0.4322654032945983,-0.16582946551068783,-0.25071919567618606,-0.27847095047969617,-0.707067467388706,-0.7258649003393558,-0.49682594335396263,-0.496540780508792,2
20.325,18.75,6.05,5.925,16.875,29.45,7.125,10.8,1318.0,1314.0,386.0,341.0,1092.0,1830.0,457.0,693.0,20.0,19.0,20.0,16.0,20.0,22.0,13.0,12.0,-0.4632502847608261,-0.20316280453143828,-0.23260600159163494,-0.2619444583349515,-0.6269515327092425,-0.17175494806760958,0.11876736507060695,0.1098697679238818,-0.5259561365462848,-0.2979409498986313,-0.35890313585789824,-0.23064023771408382,-0.14453750630568063,-0.05211592670713214,-0.10917228826007895,-0.49608174510866576,-0.6050223516273937,-0.48686464267955354,-0.4472698001584918,-0.2723938248836788,-0.3749695708814304,0.04487534927064806,-0.1245759652333594,-0.32176652517909005,-0.20139447557407514,0.023309776197052032,-0.18440122755966665,0.261376116812934,-0.43029177966283294,-0.21143851424199855,-0.12370269221783448,-0.29364347118640655,2
24.15,23.05,6.025,5.325,17.275,26.3,6.375,10.825,1571.0,1504.0,387.0,322.0,1119.0,1665.0,445.0,702.0,18.0,19.0,19.0,16.0,19.0,21.0,18.0,16.0,-0.5696294822465814,-0.3858663883202154,-0.13236013881512168,-0.20675536808874634,-0.6230032447830421,-0.34875336183104005,-0.08758610107656499,-0.10838993620333703,-0.37691482656109954,-0.07758173708856259,-0.1713594578570998,-0.2991520561989373,-0.5326163655865137,-0.3235612312189513,-0.2771530558179651,-0.36431606921809606,-0.6363054659725853,-0.5005797923138892,-0.35729135500184495,-0.267881271959872,-0.5801127846605932,-0.08064940424371828,0.01118045881998015,-0.24273300761537295,-0.6643127616830476,-0.3765444828974946,-0.46464772964869333,-0.42011900144215164,-0.6293413105736078,-0.30560735732218164,-0.5086647395073858,-0.4587119135770872,2
22.375,16.825,4.45,4.05,16.3,22.975,8.125,8.275,1403.0,909.0,228.0,224.0,1091.0,1469.0,468.0,421.0,18.0,12.0,12.0,13.0,19.0,21.0,15.0,14.0,-0.3907072478477512,-0.4112984890848211,-0.2091457123208424,-0.40727539818321357,-0.041316555421115876,-0.3158922687628775,-0.05909327408532227,-0.3278670513500311,-0.012564215502816722,-0.16417680796308123,-0.019763038533133277,-0.1718257849012274,-0.30737404964272214,-0.22686918749508025,-0.3351532759466311,-0.3241027781030511,-0.7430920854574684,-0.47917449608418583,-0.1409602037653583,-0.15517022649828638,-0.5741488331988835,-0.4067264184239531,-0.0885946118837076,0.020134351226911495,-0.2718640617397239,-0.08209645851132089,-0.06601993395916324,0.10220418955715893,-0.051897606221534866,-0.1375968586770717,-0.3466823833308225,0.048108266111991094,2
19.925,14.6,4.1,4.175,17.275,24.325,9.0,9.175,1237.0,926.0,265.0,265.0,1160.0,1680.0,551.0,533.0,17.0,18.0,19.0,19.0,21.0,21.0,18.0,18.0,-0.43689708874737654,-0.20120175693916562,-0.26484381205076146,-0.3077870698240828,-0.6225646399772055,-0.2812101029355647,-0.08022459442430979,-0.0792132030947343,-0.3949984899702345,-0.24800757554339795,-0.11936575241875647,-0.42378063980063846,-0.385991477298579,-0.06808521925249114,0.052762174129450105,-0.047490465735067745,-0.7344675481308461,-0.523781710324711,-0.3425515597645552,-0.3849213956594981,-0.6920743414889171,-0.13502072434411652,0.09370595894476531,0.023631776902362567,-0.4884852914011688,-0.3023164725060783,-0.40589010548333954,-0.08796998628559798,-0.2557971567126978,-0.17251254564751775,-0.20529427214853654,-0.13997584704703536,2
23.275,19.55,4.25,4.1,12.7,21.075,7.275,11.075,1688.0,1228.0,249.0,245.0,874.0,1275.0,467.0,706.0,20.0,15.0,14.0,15.0,19.0,15.0,17.0,19.0,-0.5876295322151778,-0.39607185205193873,-0.32895923942072103,-0.42088456376389066,-0.5266006505835166,-0.4939209941342286,-0.28410556339177423,-0.3104524759073422,-0.21290626657368877,-0.23855694668708508,0.0025759589292296014,0.016842503739658767,-0.37880734570957936,-0.2651248843909436,-0.2635308301724505,-0.11656420450609584,-0.8188678505267281,-0.6084961899567704,-0.3798817152168837,-0.26147885670680715,-0.3901472365407978,-0.30517964522088564,-0.26348888268808235,-0.08215184919589838,-0.5485971560238561,-0.3069563038975086,-0.2321105629029502,-0.11980787558411876,-0.8087482891257496,-0.6510775798268313,-0.7135120286561643,-0.32419444564206557,2
20.7,11.825,3.625,4.025,12.8,24.975,8.525,8.925,1415.0,736.0,204.0,244.0,832.0,1458.0,565.0,573.0,16.0,20.0,13.0,14.0,17.0,16.0,17.0,15.0,-0.4873024441402784,-0.43548126367171036,-0.27853542302446593,-0.28337472861543733,-0.13927992622017213,-0.2305927265543565,0.1069673837024112,0.17641683396694288,-0.0804171063789124,-0.3504993696098383,-0.1534395426319082,-0.0847570339171889,-0.36759663300026224,-0.23087318092599987,-0.16672269404425988,-0.16912403259117068,-0.7520368028982186,-0.5598182473711634,-0.44269708357473314,-0.0765705248585366,-0.27678700322607147,-0.4653653148649557,-0.21819592497517493,-0.26095601586998096,-0.5156998365375709,-0.15285795877522956,-0.4230060517958045,-0.47000092053045,-0.15113173989819306,-0.08120126321168145,-0.31190166802253017,-0.1300228219852055,2
17.75,14.3,5.95,4.625,12.625,25.675,6.65,10.9,1217.0,1004.0,378.0,294.0,875.0,1618.0,437.0,759.0,20.0,19.0,18.0,16.0,16.0,21.0,23.0,21.0,-0.5381385052551134,-0.2846447700051192,-0.42642158732620444,-0.31209203301891947,-0.3014650616307183,-0.0017363380741786988,-0.12928780293381562,0.0934527529347758,-0.32378509673773537,-0.0751704681676346,-0.11599867127007725,-0.20677322294830655,-0.444744290753754,-0.41471620909875434,-0.2727618874825406,-0.5331611869126667,-0.3894691988400059,-0.3205479320703599,-0.06150817326145639,-0.2523249672701173,-0.33831112935057506,-0.24606700717366925,0.12388384998183748,-0.20889950782156474,-0.5234087457281437,-0.4268901104399303,-0.2270507098246827,-0.2675261777870005,-0.5092595555371436,-0.283201371901684,0.2631498582452982,0.0022108005901807955,2
19.7,14.6,5.075,3.425,9.225,25.825,8.675,11.075,1324.0,845.0,295.0,214.0,645.0,1775.0,565.0,789.0,17.0,17.0,13.0,16.0,18.0,18.0,17.0,15.0,-0.4136309230199905,-0.2917907598771118,-0.40854636418478407,0.04917184949731765,-0.13181707068556323,0.1148181846271396,-0.03758826223584104,-0.279205395219365,-0.1355478638088151,0.05721622380929878,-0.04815609533695074,-0.06810248180548839,-0.4823951205758014,-0.6471035641106779,-0.42263990801910634,-0.4884940756126567,-0.3853087672608075,-0.09107179920922842,-0.08102643634233503,0.02607655117580807,-0.5374869491689837,-0.22879832895566038,-0.24146115070508956,-0.07972703255015581,-0.6221314000386718,-0.31568949473160945,0.03578042111490073,0.006732030629269678,-0.4561164446195779,-0.20947940701135417,-0.2506649170160425,-0.28939501717886934,2
15.125,13.3,3.85,3.35,12.475,26.075,8.275,11.9,1047.0,822.0,231.0,186.0,773.0,1590.0,546.0,813.0,19.0,16.0,17.0,14.0,15.0,19.0,20.0,17.0,-0.2703095686678641,-0.22120010892813857,0.03159339727215659,-0.3586106407125837,-0.4132151619896648,-0.44216584902719414,-0.11397716200851607,-0.27052059234720044,-0.21964203295383905,-0.08499429165666897,0.024001386677980522,-0.17675117447957045,-0.5218756352485919,-0.5667682325131059,-0.4893035940809738,-0.5062530060388009,-0.4246851656854188,-0.2630402123437061,0.05933315468148174,0.020615353679436038,-0.3096204423872817,-0.010356589552125964,-0.11438873928452585,-0.1414931109403522,-0.2744304604124377,-0.06425103562252649,0.279313278627367,0.06004241378697499,-0.44804506636678537,-0.26492619064271367,-0.37075550070770397,-0.36895383677624993,2
14.5,10.55,3.45,3.7,10.2,24.375,8.925,11.975,966.0,668.0,214.0,246.0,684.0,1534.0,634.0,814.0,20.0,20.0,14.0,16.0,17.0,18.0,21.0,22.0,-0.5191363168904412,-0.3779326990167785,-0.08364180917591288,-0.2754811758934151,-0.6019450730657568,-0.4252523249316332,-0.14269168208257724,-0.23069904835441712,-0.11565227547175384,-0.09714635295834785,0.20447038040590798,-0.44679464809951575,-0.43658179831101357,0.02097836155720317,-0.06545247523797215,-0.49502558527416207,-0.6262593031704562,-0.11273043810093629,0.15547547166240058,0.06244884627592358,-0.39625665994558684,-0.10880335111589887,-0.1886709454878182,-0.22797245049298362,-0.5062356380477657,-0.18378022254358153,-0.1831380865488602,-0.23343009980612112,-0.6073280347673823,-0.28157901238795774,-0.3282995274437028,-0.26408470471484696,2
20.05,10.8,5.325,4.3,12.675,30.95,10.225,9.7,1404.0,713.0,316.0,246.0,868.0,2136.0,701.0,614.0,24.0,18.0,14.0,12.0,21.0,24.0,17.0,19.0,-0.8296608921973172,-0.5505671287631677,-0.33665957740860836,-0.35465980644135076,-0.577632423554697,-0.282227691843112,-0.005241101568816534,-0.2412705115937196,-0.300774855512295,-0.12852897305694208,-0.4662810817638808,-0.06787017482661482,-0.13900414515541076,-0.2730284075650206,-0.1332030074302708,-0.5378317584579758,-0.6809256094555053,-0.4647888296487727,-0.4654969409260409,-0.30794977192139317,-0.7131307546958601,-0.19928059223260616,-0.08699820694223413,-0.09047769823462787,-1.0776913572746951,-1.0293717311794912,-0.5600550248974744,-0.2648505341675015,-0.38954477559905965,-0.16900878070008002,0.024115130869557962,-0.1230279594516909,2
19.9,18.85,5.15,4.975,16.525,24.4,10.0,11.2,1501.0,1266.0,289.0,278.0,1127.0,1696.0,660.0,782.0,24.0,15.0,16.0,13.0,18.0,23.0,19.0,20.0,-0.6239741288417865,-0.29948788695055134,-0.06432515809604773,-0.2253821175562208,-0.4510247783970057,-0.19129173123646756,-0.30783299797369224,-0.3263856430243826,-0.21764444010630127,0.22253942619038755,0.006311699183726218,-0.33360428412038684,-0.1888828430774086,-0.1389061326217022,-0.32970714431658815,-0.19536735925282153,-0.6213580525706024,-0.30160472079962825,-0.2787549598049915,-0.17390185601052954,-0.6609427978513972,-0.4571881170690201,-0.4051992299625466,-0.379821436678693,-0.5234615810306577,-0.41364930862283716,-0.29130603123415216,-0.21467540451690767,-0.658585921581403,-0.3496503143760413,-0.39551335022615053,-0.47745874510477926,2
18.95,16.55,3.925,5.45,11.575,24.75,8.075,8.5,1325.0,1022.0,244.0,325.0,724.0,1661.0,547.0,582.0,18.0,15.0,16.0,15.0,11.0,17.0,18.0,17.0,-0.3899466370699546,-0.24014545022314981,-0.0035512247737356233,-0.19544416597188183,-0.18747254690212237,-0.3234529884225838,-0.09122025249153815,-0.3487600676287411,-0.20396772048079315,0.0632281104453049,0.06340740800886502,-0.082279729992542,-0.5638039287382905,-0.5330728072625592,-0.5315217225723059,-0.5068335088167014,-0.19929828504503197,-0.17157788187421866,-0.1544353515045029,-0.30671042171535035,-0.4609131211656649,-0.20133061753515538,-0.5200891220859375,-0.26304503818141833,-0.518330294870941,-0.18584579344441646,-0.5179657849586679,-0.41487330677503315,-0.5678460790419192,-0.15686449984376594,-0.27862481300632513,-0.2760468684873645,2
18.4,13.5,5.525,5.225,11.25,15.625,6.125,8.925,1142.0,811.0,358.0,280.0,789.0,1012.0,355.0,571.0,19.0,19.0,18.0,8.0,18.0,17.0,12.0,17.0,-0.6243692598541297,-0.4168519741150042,-0.4627960883779023,-0.4755196220854447,-0.4447799299047064,-0.13800816739878757,-0.1275902973889925,-0.25694895649376304,-0.2791521371095281,0.07128656084388849,-0.2030160896102163,-0.2022033221536296,-0.11104591351350764,-0.06388527430419903,-0.2532134477871581,-0.3162053724986933,-0.5409366125708862,-0.4115394044959892,0.009225027066424623,-0.09573145469540761,-0.17838905386587753,-0.14628495536113076,-0.02970408312563855,-0.1650411851269628,0.02791793606584021,-0.3887211954152548,-0.14543644375381873,0.09752756476651402,-0.19650744690315874,0.011141811545734067,-0.16378725433195596,-0.3517258662186736,2
17.9,14.8,6.25,4.425,11.575,17.4,7.075,10.875,1147.0,1025.0,387.0,231.0,765.0,1107.0,473.0,655.0,18.0,19.0,16.0,12.0,19.0,20.0,17.0,14.0,-0.5307437113267992,-0.47209473136704,-0.272005337238076,-0.2978809836104681,-0.7122494171386506,-0.12855236481922985,-0.23393367833100856,-0.1912728332197221,-0.33665749192346534,0.0909875516273401,-0.3116268986855591,-0.35026329912439497,-0.11157796340400483,-0.06274451725264274,0.06486796492982592,-0.16903381414977964,-0.5035571568612611,-0.39822908843403404,-0.243274758083051,-0.21667179639605935,-0.2988616940483135,-0.20986752741020653,-0.13016010474319706,-0.30080803070472634,-0.09597965210226254,-0.12638626158734717,-0.11601689619425713,-0.1304617281862089,-0.281404893092391,-0.0074134330696925405,-0.3906572278996592,-0.3479017459122183,2
16.45,11.775,5.425,5.075,12.375,18.525,6.225,9.475,1154.0,730.0,333.0,322.0,868.0,1093.0,378.0,561.0,22.0,15.0,14.0,17.0,20.0,15.0,15.0,18.0,-0.6982155747929111,-0.4042123700010691,-0.03326814885554362,-0.048247680695339586,-0.3340833665532643,0.055818412888030494,-0.05267875719333992,-0.05723901383785939,-0.3846064665600222,-0.34967243898993533,-0.23312803915421973,-0.38546621090307265,-0.6121359671890274,-0.473611706528595,-0.22122030820811395,-0.27765492701141464,-0.6067950160649452,-0.191399490384734,-0.11832413545113037,-0.17385101767426336,-0.24362891026115316,-0.16901168685226642,-0.3401299181149349,-0.18481001019316617,-0.3224326485927177,-0.08590706400396597,-0.28970026259802284,-0.3058030163718297,-0.5317393987003803,-0.40244616989666043,-0.583968565952211,-0.28296596443945105,2
17.625,11.45,4.825,4.3,12.25,21.1,6.975,12.175,1181.0,736.0,321.0,269.0,827.0,1418.0,371.0,855.0,19.0,20.0,19.0,16.0,16.0,18.0,13.0,24.0,-0.44543458134990427,-0.20233121841080967,0.23238343966950648,-0.12037187626077188,-0.38247642313139196,-0.15706079081038285,-0.01720158022092339,-0.2307159713207199,-0.5979977648894441,-0.2871483007126954,-0.38811806826676165,-0.36024960557786884,-0.3547281502050534,-0.36537187617787775,-0.16756177911224146,-0.37588406791852247,-0.6284951998417381,-0.3191824921292965,-0.12934575203843987,-0.20219751251669926,-0.38143964016203846,0.007481321962912473,-0.18329993272826983,-0.24436183447139334,0.014693251258778257,-0.005926178894984681,-0.26468013321812367,-0.06048686132708673,-0.5361782092359155,-0.06131845795190574,0.08474588368444973,-0.030832923403721617,2
17.6,11.05,4.875,3.675,13.425,23.325,6.95,9.7,1205.0,666.0,240.0,160.0,848.0,1522.0,438.0,618.0,21.0,18.0,12.0,12.0,18.0,20.0,14.0,17.0,-0.5234227091858809,-0.2793835699177021,0.033482913279371314,-0.13483553296169692,-0.06878780286637981,-0.22380134659214562,-0.07047197406394509,-0.02932155289734253,0.020506887738073434,-0.04424452947118593,-0.0457223449781828,-0.2007182210509449,0.37735315260513214,-0.5046892361842412,0.12657078719786646,-0.1847314840445433,-0.6446477460744752,-0.4580638304262109,-0.42107026620497406,-0.30417164912204164,-0.5597244787230706,-0.3103907905719149,-0.40094452224193494,-0.31533005202225123,-0.3666748137285735,-0.2764190683553244,0.060306354287478534,-0.24667833982120052,-0.4573205891180515,-0.2480726656399374,-0.02717828891806785,0.09264334061964576,2
11.725,8.975,5.975,5.8,12.925,25.25,8.225,8.425,703.0,589.0,347.0,260.0,903.0,1529.0,548.0,540.0,14.0,14.0,17.0,12.0,20.0,16.0,19.0,18.0,-0.37559416052193895,-0.4042554314346312,-0.27134149889624765,-0.20926170876818317,-0.13289062311463856,-0.17328817860283768,-0.04687906663935462,-0.07036216265145223,-0.16685908191034363,-0.2520285246951864,-0.03901226565854171,-0.25557079047350756,0.23218249534774388,-0.4327760298924958,-0.11034921251201071,-0.23306644261995074,-0.7502948192451375,-0.32766440055674934,-0.02001561771761014,0.012175703856499893,-0.2534377804743966,-0.34617026960703284,-0.11845197872020582,-0.385390123652896,-0.5804040157500493,-0.4853044348030674,-0.19677642797600692,-0.31563169635882266,-0.15797503807025282,-0.3876391528974481,-0.07604131734557062,-0.2178856803620966,2
16.2,16.875,4.275,4.95,10.375,24.675,6.55,10.45,1104.0,927.0,267.0,279.0,645.0,1427.0,389.0,684.0,17.0,11.0,12.0,16.0,11.0,17.0,15.0,19.0,-0.34219343160110527,0.030588986038628425,-0.1338076825775328,-0.16754332477581496,-0.04499478239799134,-0.27497297832516393,-0.14648459058063862,-0.293452092667844,-0.39023795613178247,-0.23556064319292955,0.26543809697563125,0.1445668512493033,-0.2062992786258448,-0.2227771541417207,-0.15601983774809627,-0.37816318232986984,-0.5825476284019201,-0.33020464891552137,-0.33819421430210533,-0.29665956479019245,-0.16673333907846813,-0.29945555348427294,0.1708231903567423,-0.04800399609891697,-0.2029588492058842,-0.21434744886212917,-0.24452206784192276,-0.013112295142079936,-0.3668283558364522,0.06392783845490362,0.12289534749871418,-0.15125312648096373,2
15.575,14.075,3.475,3.75,11.25,28.9,8.675,10.8,1128.0,795.0,190.0,237.0,734.0,2008.0,566.0,688.0,17.0,15.0,15.0,16.0,16.0,20.0,17.0,19.0,-0.38995874083061266,0.06637002311815351,0.13168152423811053,0.046947843311888296,-0.012039240157388845,-0.21034503394676873,-0.02745359922664843,-0.09776764330513577,-0.11202321482643122,-0.11179410137288574,-0.2085323660257581,-0.3648020120566839,-0.36111953785406337,-0.14234853400665848,-0.2031633396410524,-0.24525461237513294,-0.4251271075769461,-0.14016810176131153,-0.17115688365289997,-0.10932132512626472,-0.5917324236597399,-0.47345408737632466,-0.02862884346524164,-0.036918964426833435,-0.508129494858444,-0.17780701954051958,-0.07321474683340272,-0.026527308633087054,-0.531954139705124,-0.4909654998959671,-0.3273381568400391,-0.40154953225975787,2
14.725,11.825,3.825,4.425,11.8,23.95,8.0,10.25,970.0,695.0,205.0,233.0,808.0,1655.0,577.0,617.0,18.0,16.0,12.0,14.0,20.0,18.0,23.0,17.0,-0.16316120514353108,-0.10662245439991162,0.002258763527197448,-0.017059903574262063,-0.2843504215813396,-0.32200136122263506,-0.4701682789227989,-0.23155330992657996,-0.06857404745849707,-0.2371310817614828,-0.12955157517251342,0.19675691930787456,0.018761793816036508,-0.2991641948161987,-0.03570358856991459,-0.13197094004192253,-0.601060585778963,-0.1160190236614391,-0.18012131739377096,-0.3045987749617074,-0.7868132644600774,-0.5208692240518309,-0.31400377535301777,-0.25519073212896426,-0.5124277707367076,-0.027912603078703038,-0.0050855461929406875,-0.1252625146401754,-0.4890216494820744,-0.4337072782985199,-0.4466008898432154,-0.21838308759589622,2
14.1,13.575,4.725,5.475,10.525,23.175,9.65,12.975,852.0,807.0,274.0,283.0,750.0,1512.0,680.0,801.0,18.0,17.0,16.0,13.0,18.0,16.0,17.0,15.0,-0.2629860226817169,-0.09846698205560529,-0.11507809447484754,-0.19573122689431696,-0.3364499842419142,-0.4744887934223982,-0.17358162185020165,-0.37621224268958575,-0.21309745617522882,-0.11174390711599315,-0.24103283986886126,-0.3746364482448863,0.04457855296205924,-0.05297455049982652,-0.22669758850383065,-0.23198460972205906,-0.5822840445467461,-0.13386744714148055,-0.24663850372350524,-0.3416021378684743,-0.5067251215129052,-0.3512185949561405,-0.2751687985924087,-0.47034057088111264,-0.3540901142369613,-0.30268049261385077,-0.16698123023875328,-0.38002303584495806,-0.6040070828702068,-0.39643216687772387,-0.45180851638944264,-0.38703258675423113,2
16.275,12.025,4.95,4.55,13.75,23.2,10.4,10.525,1044.0,717.0,311.0,187.0,969.0,1612.0,691.0,658.0,22.0,15.0,19.0,7.0,18.0,19.0,17.0,22.0,-0.46698145254899875,-0.4250759708412352,-0.12166206305792955,-0.11133071345002438,-0.1197179086851956,-0.03255151276788561,-0.0654737965538889,-0.2522401005892633,-0.3089529731402826,-0.1871131443929871,-0.2206724750914069,-0.1509860793547499,0.18809272885769304,-0.2581639157279631,-0.056895650123804285,-0.3218195113776724,-0.6714287051009445,-0.442513602082485,-0.1485555006008722,-0.21613578896856617,-0.548789039316118,-0.26855774353802986,-0.3288324101313482,-0.2225734297226555,-0.3223051483360541,-0.26703357084680757,-0.10577403140234305,-0.29065927046495893,-0.48634828840400635,-0.27328827176318016,-0.08584726645977436,-0.08058772814062459,2
15.025,12.6,5.65,4.775,16.1,19.375,6.725,8.375,935.0,832.0,342.0,277.0,1157.0,1271.0,428.0,503.0,13.0,16.0,13.0,16.0,22.0,23.0,13.0,17.0,-0.3438681967672641,-0.21755859420753323,0.01523249490334623,-0.08515902411125904,-0.2221842360653857,-0.08733252524315797,-0.03527220975189366,0.15847354941132508,-0.2861944599787382,-0.4031779516212296,-0.32261768020025966,-0.011431304621448181,-0.13928665227287113,-0.28777491395436744,-0.023354805278444166,-0.4048153900011394,-0.7496959516706236,-0.2736352572552203,0.01019612042765375,-0.024899744237356115,-0.33291960388486436,-0.13699694611983396,-0.07159068290776435,-0.4124823281864468,-0.28377317152059117,-0.23116206374725773,-0.1451092240430855,-0.43032773764757504,-0.10890287396683555,0.007022445295672719,0.044305965267649385,-0.13310443348098863,2
15.375,14.675,5.075,3.35,13.8,23.6,8.1,10.925,954.0,893.0,288.0,184.0,939.0,1491.0,498.0,767.0,18.0,19.0,13.0,10.0,16.0,17.0,17.0,24.0,-0.40646269592697787,-0.3356665598789524,-0.14097697053324584,-0.19774731081798141,-0.18931374405402493,-0.1603762707311401,-0.12950738559754946,0.018499885188177648,-0.3034680737760788,-0.5834904652208321,-0.364424824603585,-0.4697548165512525,-0.06700849649421758,-0.14137043846203556,-0.12380563349690657,-0.05518728209237828,-0.623948271121102,-0.23581623315273617,-0.1210611411683898,-0.15816067893799013,-0.32805989758207177,-0.11599185895666624,-0.0728539758915917,0.08453170006864916,-0.28123142507892046,-0.08919009317831252,-0.16672463162896278,-0.178573929838658,-0.8835810902100222,-0.2977057078858222,-0.17042874704006397,-0.21504173104265256,2
14.35,12.475,4.05,3.4,10.6,24.3,8.925,9.9,948.0,742.0,267.0,208.0,693.0,1634.0,598.0,606.0,19.0,15.0,18.0,17.0,20.0,15.0,17.0,16.0,-0.42047362892696233,-0.28467585674180734,-0.03608943319066341,-0.2637999018663378,-0.2209443653181939,-0.06541919042865083,-0.1487565676816699,-0.3816906792277166,-0.6221833824440481,-0.6343072239424996,-0.2552866377196465,-0.35831613716778915,-0.3398258593375729,-0.17555695366177848,-0.1999198276891217,-0.17666302873353498,-0.401297471078665,-0.39756442506569734,0.01089374334745479,-0.18194682055994954,-0.5481387583782998,-0.27571181425324415,-0.1686571375393901,-0.05212741392431373,-0.41403558728880807,-0.20787322320182092,-0.09460240978064173,-0.1789596459150159,-0.3338719482095045,-0.5382994468847195,-0.11974660363167919,-0.3394759182953667,2
12.15,11.55,4.625,4.075,9.875,28.325,9.325,9.975,755.0,733.0,296.0,221.0,666.0,2148.0,693.0,559.0,18.0,16.0,16.0,14.0,18.0,25.0,23.0,16.0,-0.25358069989296084,-0.23532652036048646,0.08571998993080332,-0.16295282638862055,-0.43798248737532053,-0.3138858652262046,-0.3033373417140045,0.012756403919118656,-0.35919100208333626,-0.1362933726713138,-0.27263465824287886,-0.21934828280521393,-0.08049314390993847,-0.5119161685446382,-0.21022006876671337,-0.38185563738713674,-0.38657498948702557,-0.0035786437479580135,-0.19250278726953277,-0.222712085246995,-0.8575183576137742,-0.21580128703673268,0.0367002290209444,0.08101489020458368,-0.9611174412096882,-0.5305510554706426,-0.42678227594540513,-0.22089227461004127,-0.18804863625195048,-0.1569379185052743,0.15386486228684262,-0.15919703812005934,2
10.575,14.375,5.725,6.15,11.275,20.425,9.425,12.025,675.0,852.0,364.0,334.0,803.0,1252.0,594.0,714.0,18.0,16.0,19.0,14.0,21.0,17.0,17.0,19.0,-0.1608421862142913,-0.16010285765651355,0.010794507578768731,-0.2860984954713478,-0.294999251029103,-0.11393984353236654,-0.43509073305389373,-0.20521288258329054,-0.4132034196783617,-0.2002036806408743,-0.34674758742309647,-0.14853468481127777,-0.3366075530117998,-0.35860451184707365,-0.24346346605490385,-0.41316121405232403,-0.6240579978382148,-0.21898158060410952,-0.2684799450854968,-0.42957854585518934,-0.2886559611216085,-0.007762167039124479,-0.21653267759378425,-0.17783308262531597,-0.4633903446110978,-0.11855864188650339,-0.06712106075805868,-0.07749723017024637,-0.22067727534016315,-0.02387862791541942,-0.14193834131996078,-0.24594612096225665,2
14.475,14.95,5.2,5.525,10.3,18.325,7.775,12.45,883.0,957.0,310.0,341.0,737.0,963.0,448.0,806.0,17.0,14.0,17.0,16.0,19.0,16.0,16.0,20.0,-0.3646213179402943,-0.06859589196314915,-0.22362081805589334,-0.2347429420241572,-0.24799400431495652,-0.07186195899545075,-0.18205371942830062,-0.24697308851094016,-0.2538273188784017,-0.22410158955102413,-0.136759985741404,-0.1420731312845274,-0.4974758168339731,-0.6383416636625614,-0.3483759319084751,-0.3764892344199661,-0.33079327374808837,-0.3693675369398572,-0.11876869136361895,-0.24095146736601328,-0.04760366898595448,-0.2942165074605753,-0.026803254913491396,-0.4047882585132348,-0.29393655133295676,-0.3048797706329374,-0.24548249106546075,-0.5123818309850587,-0.647139803751187,-0.2988841497414416,0.0829276951332855,0.004418433491404078,2
11.325,14.15,3.5,3.85,15.3,21.375,8.3,12.55,637.0,918.0,199.0,232.0,1028.0,1383.0,494.0,839.0,10.0,20.0,14.0,16.0,19.0,19.0,14.0,21.0,-0.2043092395307446,-0.29888407735537476,0.09818311273408134,-0.04911560206206576,-0.5479671346455817,-0.20583311087122222,-0.17671504942324268,-0.1645027501865821,-0.15752987755202622,-0.19594770433314673,-0.32898910096211387,-0.22467695436288418,-0.25381464215668886,-0.3337109263025919,-0.33293684747707275,-0.16128468533929732,-0.6784004517727527,-0.2872066493759316,-0.28219893719606837,-0.3584975692961801,-0.23943905053788342,-0.07001832835492412,-0.06782133263817679,-0.4372531882590744,-0.12002996759822819,0.18037635269859012,0.028405939963007797,-0.46215196215321197,-0.7417787590911875,-0.28493428696948636,0.013953384630065417,0.07742575780326824,2
14.925,15.875,4.5,3.825,13.8,21.125,8.325,13.225,950.0,972.0,258.0,231.0,929.0,1320.0,496.0,834.0,18.0,17.0,15.0,20.0,19.0,19.0,14.0,15.0,-0.5279046927527734,-0.23092360422045013,-0.5453087352811312,-0.3896932953589046,-0.39407205100058873,-0.23130313727036927,-0.07075925953302314,-0.34393930379893445,-0.3482811349059584,-0.22231603127467015,0.05882128653423493,-0.1870125334061887,-0.18188965712066832,-0.26198566873892287,-0.15164686644054698,-0.3031193367064574,-0.7988711936597959,-0.3577151722248671,-0.1577556712209884,-0.22986882600368497,-0.2885677636908223,-0.12035037237739833,-0.18160250719404525,-0.3677018886477915,-0.2973538259798319,-0.17963741844080036,-0.3277940119318302,-0.22317311131473969,-0.3012624898621031,-0.28567496268475967,-0.18351996997658518,-0.40463213486939054,2
15.95,16.4,4.625,4.75,12.775,20.05,7.6,12.325,960.0,1141.0,237.0,278.0,874.0,1315.0,489.0,780.0,21.0,18.0,9.0,14.0,20.0,18.0,18.0,18.0,-0.2761269936856145,-0.27458452365551833,-0.23858800111056505,-0.07251657736424014,-0.5594292643567007,-0.11196447413181447,0.0784201924370148,-0.17598689665356546,-0.3171786770743492,-0.22479424041089102,-0.06177005794572734,-0.24559274825780414,-0.12130128341142331,-0.5655374352936988,-0.01856099674869097,-0.4478028355490801,-0.6994191078584727,-0.35405279390986355,0.1340193712837106,0.12789558246442914,-0.2976089192043811,-0.21198464726326005,-0.08886006260755372,-0.42027558747161003,-0.4014348583770863,0.011973748545052029,-0.22608329843109568,-0.33681194683989824,-0.3481831516623878,-0.29815163061818184,-0.26797526576421166,-0.1281443715078408,2
14.475,11.875,4.75,6.15,11.55,21.975,10.3,8.35,883.0,829.0,257.0,354.0,706.0,1365.0,684.0,542.0,16.0,17.0,14.0,15.0,20.0,16.0,20.0,20.0,-0.27134681404117944,-0.5239495014735759,-0.203803854377637,-0.12423998566138364,-0.30053574683413514,0.1881456926074395,0.025783437683192575,-0.32949287673739974,-0.06632488291537021,-0.0582319668401998,-0.07763321361034906,0.016311814817747343,-0.028383340693620286,-0.36613102976474904,-0.09869984121360209,-0.28663935607557117,-0.38994766568985373,-0.4690125749675724,-0.07593700697269071,0.10574477259441516,-0.3420209476885507,-0.24971025000340888,-0.09063265030306034,0.06392849473358635,-0.6174867192332926,-0.2942301833973462,-0.2999678898897464,-0.33685791587324937,-0.4537125115968648,-0.15965325813579348,-0.13472766294845034,-0.001143654142369305,2
12.725,10.75,4.45,4.125,11.575,17.825,7.35,10.225,684.0,658.0,270.0,248.0,773.0,1174.0,457.0,659.0,14.0,17.0,11.0,15.0,17.0,19.0,18.0,20.0,-0.016018759970051685,-0.3695068055987519,-0.2975307180178599,-0.043692073290714714,-0.2595162743929548,-0.011722955689677945,-0.17738194506205457,-0.08992112757832406,-0.17778472363818093,-0.07048002287725189,-0.0561282072651346,-0.01855431513031883,-0.2619629063054687,-0.15236311265545424,-0.21268027875788306,-0.2298201759851033,-0.2878927830145165,-0.19797895569927773,0.012919031291568408,-0.36238586657172306,-0.5639388946592827,-0.260478588895141,-0.12238979149230782,-0.1318689855404023,-0.36296355361248506,-0.23538769792115552,-0.3222598785464146,-0.31225049123442405,-0.5563562414512039,-0.06606057189679769,0.06396171490183984,-0.1404718916636626,2
15.025,13.75,5.2,5.875,11.525,20.7,7.975,11.0,987.0,747.0,287.0,372.0,775.0,1314.0,482.0,738.0,21.0,19.0,13.0,14.0,20.0,15.0,14.0,21.0,-0.5321171386504958,-0.391741089560077,-0.2459006948406992,0.012415764769715214,-0.0013999556285442425,-0.10640861413549657,0.1039992444935562,-0.2430168366357402,-0.047812504534899304,-0.12912421315924405,0.009903638030783897,-0.10045511899771632,-0.2515202272644002,-0.16434529720256089,-0.15937379031305146,-0.2733129848348129,-0.5000647033582184,-0.29890623990078297,-0.4377858526935978,-0.3504490538220349,-0.3494828118857928,-0.2753481663181739,0.0786502694168845,-0.04846743906134191,-0.16019093505710874,-0.04279293873276208,-0.23825937224358304,-0.20323206720106998,-0.5685128785181028,-0.23398276647921515,0.08888295488888787,0.09780914785141168,2
10.775,12.2,5.075,4.2,7.4,25.225,9.075,10.575,693.0,688.0,306.0,254.0,472.0,1547.0,554.0,673.0,18.0,15.0,15.0,12.0,16.0,18.0,20.0,15.0,-0.1309605458464445,-0.14932051478320738,0.003064435101168242,0.006748044207039589,-0.055198314230880674,-0.3020347795377461,-0.11675008263683541,-0.1006213895785664,-0.22313388754048985,-0.2204446247848247,-0.07045866282577973,-0.20494007453398896,-0.2071677104345955,0.0033846554659132115,-0.1447649850198719,-0.35262265581886904,-0.45720374380096684,-0.181290484674927,-0.08161165403625077,-0.03894444430379013,-0.5035735546320946,-0.5063081696750354,-0.20306975064815538,-0.24821994977414444,-0.2479348505953981,0.03433180494044675,-0.07316435521868186,-0.22576634590589562,-0.4934221089662835,-0.24895884450014247,-0.07255002378044069,-0.13839933706825155,2
16.275,10.625,5.15,3.225,10.4,21.275,9.725,11.7,1080.0,556.0,362.0,204.0,574.0,1326.0,607.0,791.0,21.0,13.0,19.0,18.0,12.0,17.0,17.0,20.0,-0.3850253125600856,-0.27776061218058273,0.1320623913990784,-0.13403343616101768,0.045630823660006765,-0.06270402771713396,-0.2222655968494967,-0.028096941666568193,-0.5489093342233959,-0.053021672410094436,-0.18119781481230426,-0.29270411729606066,-0.21068508507727948,-0.032315721026835005,-0.28847710327978576,-0.18987429464971234,-0.10987106128704288,-0.11677860877762372,0.0015871120917015948,0.17390119077204674,-0.50173372284901,-0.47970952360141245,-0.44642330255495527,-0.49068033373867315,-0.5845154443133135,-0.6120031213420365,-0.429406942732774,-0.4768930829140537,-0.6067558970030233,-0.41768677813786814,-0.08673707951789457,-0.13808568003484,2
18.975,18.325,5.15,3.775,14.2,21.825,7.8,12.275,1215.0,1204.0,330.0,216.0,833.0,1373.0,462.0,843.0,20.0,19.0,15.0,13.0,19.0,21.0,18.0,18.0,-0.4924485963797481,-0.3486231789106195,0.05947713863168741,0.03645021622725258,-0.7330926244756188,-0.7929332172661593,-0.34785805843038703,-0.2725618533593177,-0.5215902250450314,-0.2815828350771222,-0.23909630303018514,-0.22078492423030177,-0.4724435940222235,-0.48582741668157353,-0.30802359185258593,-0.26598121658325397,-0.40148113179238426,-0.2874369758346036,-0.15023964460368253,-0.2573807983657732,-0.41116658668555567,-0.1319243638729347,-0.04381848714450962,-0.29170851390793234,-0.14300941332015235,-0.18967857406956903,-0.20201651112003,-0.16448808217944794,-0.8451889576021119,-0.5553596929709712,-0.5387906818286773,-0.4096364676169987,2
15.475,16.425,3.575,4.0,13.575,27.775,6.15,9.7,1120.0,1020.0,224.0,224.0,847.0,1681.0,411.0,574.0,22.0,15.0,15.0,13.0,17.0,19.0,14.0,14.0,-0.4865167613590605,-0.2492558559652479,-0.12221900957824472,-0.19495194476448555,-0.46814802097106756,-0.41901598192977546,-0.27416673441773043,-0.31392332116087296,-0.33043165872070807,0.04521658466884749,0.14954736060184592,0.043471090771419967,-0.25718523277071476,-0.5370328916057163,-0.09715878097884721,-0.3806047058645891,-0.29394635692368914,-0.31578626488130535,-0.08691046865967715,-0.15020471462651094,-0.4607859639791116,-0.25278912978088225,-0.07892099842052236,-0.011349421115534183,-0.29167106785901603,-0.11042595828593954,-0.35132819287639233,-0.28267506042108864,-0.4415676953617634,-0.22664622278659652,-0.2317531694965645,-0.2681773439714951,2
16.6,12.95,5.4,4.45,12.75,28.1,8.825,9.875,1134.0,726.0,329.0,289.0,792.0,1796.0,569.0,565.0,18.0,16.0,19.0,17.0,20.0,19.0,17.0,16.0,-0.3395009256527599,-0.11586616448224983,0.04536050845391676,-0.03849679270675517,-0.4152249121738966,-0.39510703953827747,-0.08933079185437597,-0.03791385338932527,-0.2859144554283295,-0.3976728047624319,-0.013555859773327556,-0.09331876301525374,-0.4111487445866079,-0.1559690283124432,0.008248430727832535,-0.1443119121264058,-0.39439120003068134,-0.11792507854298014,-0.27402987956027586,-0.06896927334261851,-0.640423375058602,-0.5985002688821447,-0.36897571402506874,-0.16418759469973865,-0.41872540392518715,-0.49749886857496445,-0.20332990176787202,-0.3262210790155104,-0.36543087662399065,-0.5239207121484363,-0.31329353637048907,-0.2446434724224318,2
15.9,12.45,5.4,4.8,16.85,27.325,10.725,9.975,1043.0,744.0,331.0,281.0,1158.0,1831.0,747.0,697.0,18.0,15.0,16.0,16.0,21.0,21.0,21.0,18.0,-0.6142470821326003,-0.6343192591389158,-0.43588246491312893,-0.3650225028599748,-0.4763968445783164,-0.34252004337235753,-0.28127154649507996,-0.27024307688746596,-0.354492662814688,-0.4049017931330935,-0.3100657944954257,-0.15548512808799292,-0.49630093148088733,-0.4117282090419558,-0.3730508712575129,-0.10325261737744852,-0.7810184312105407,-0.5627450200845326,-0.33093150823980866,-0.14686668649129309,-0.6532462239671847,-0.6152974751778558,-0.3342126217508602,-0.29339870164783877,-1.011476885658139,-0.791992436717245,-0.3417483449798739,-0.1376638616924274,-0.6800315474803753,-0.27824495277107847,-0.30454611529330455,-0.12256273321365119,2
14.0,13.15,5.375,4.9,14.55,21.6,9.1,14.975,928.0,820.0,328.0,260.0,939.0,1328.0,605.0,1089.0,20.0,19.0,12.0,16.0,20.0,17.0,15.0,21.0,-0.5665382812138041,-0.49772332166165106,-0.2872529574465159,-0.5045577347718404,-0.265173803776601,-0.37957374510464786,0.06758711151042654,-0.11237678217318925,-0.26570308196846176,-0.24963273302133848,-0.29419521769825613,-0.21410460086172958,-0.4019532740087351,-0.6580936704665062,-0.29096137314714815,-0.251413433626687,-0.4830105883962689,-0.4246824323045543,-0.40135214863689334,-0.5236200608972353,-0.3224976855793369,-0.2819933914479051,-0.10274624307767154,-0.061102962876876644,-0.3934498031314808,-0.048641181191605806,-0.2682105391263889,-0.19956084720043815,-0.5759963191378682,-0.30524232301867293,-0.08657716509330038,-0.2245137333777837,2
15.775,10.225,4.825,4.025,15.475,21.0,8.075,10.25,1134.0,627.0,285.0,237.0,1054.0,1450.0,490.0,648.0,18.0,12.0,15.0,15.0,22.0,21.0,17.0,16.0,-0.734204386221977,-0.5594832218395267,-0.5131467436567099,-0.5388966597758355,-0.2405916142855803,-0.22494876007988643,-0.15439898715738737,0.04666306136882012,-0.12585189699726415,-0.28594257083444785,-0.03815785254776611,0.05442596896073776,-0.3461839724790299,-0.4068452954296544,-0.22725853868879617,-0.38605798740226277,-0.8595402509353266,-0.4362246136856833,-0.5073682941300866,-0.4187988800988686,-0.5416936172507066,-0.15650535631058585,-0.33365835896975427,-0.2552451770175115,-0.2560490625673884,-0.2515319196921777,-0.07142159912039404,0.03251107160604805,-0.2701294682105451,-0.3891363466840124,-0.047598050111464174,-0.1819643853606446,2
16.9,11.275,5.0,4.325,15.1,27.0,6.725,9.275,1139.0,699.0,331.0,270.0,981.0,1887.0,438.0,585.0,20.0,16.0,18.0,16.0,18.0,23.0,16.0,15.0,-0.6420543850445223,-0.45549659668333436,-0.2984245561505385,-0.12089109481518838,-0.2799613648196419,-0.13633313429937524,-0.30150471630740383,-0.18666042017978854,-0.6047010225972325,-0.47031730681185824,-0.4109125457121888,-0.2603994180112219,-0.40909163554934663,-0.2940441957699134,-0.47420581630763464,-0.15044626838488379,-0.7225587261694377,-0.6143639331440398,-0.26310660305121236,-0.34433334602310856,-0.7054305937248484,-0.44269129004899904,-0.13379410046959297,-0.16786989977616787,-0.4480897198411427,-0.3971725213689874,-0.30015819180423464,-0.14736857302924672,-0.3393742647841979,-0.2905686072242864,-0.13164351728582718,-0.23584327617884077,2
12.65,11.9,3.3,3.9,12.675,24.925,7.775,8.875,829.0,754.0,209.0,234.0,763.0,1711.0,448.0,578.0,17.0,20.0,14.0,16.0,19.0,20.0,15.0,17.0,-0.2749445964812293,-0.08138734838285093,-0.21112210437661927,-0.10529921192786439,-0.49720639665363353,-0.26875532082922043,-0.319243020072919,-0.2553479344378511,-0.24946541892043972,-0.09116484315804937,-0.37105866383673414,-0.34639055319397544,-0.33098064827091556,-0.2887111190996907,-0.3153046960499072,-0.6728622184863611,-0.323339845544846,-0.2472857399561434,0.005624882940740172,-0.035180498818842956,-0.6673530424616431,-0.621477441729242,-0.2988061438868241,-0.23248153138107475,-0.24178692681414352,-0.5670866397508223,-0.16538404844886387,-0.3088793817886906,-0.28564432497897385,-0.4466983432296988,0.17854901739471535,-0.09202607628434609,2
11.15,10.6,3.6,2.925,16.325,20.0,7.375,8.425,689.0,734.0,236.0,162.0,1097.0,1293.0,384.0,526.0,19.0,19.0,14.0,12.0,23.0,20.0,14.0,17.0,-0.24284105145481644,-0.11052446644932021,-0.18692811999368228,0.15154274171436133,-0.6579165856956518,-0.283984073854272,-0.07963099335313559,-0.05370596467962294,-0.3765248136511121,-0.13513446629510395,-0.06147343455188919,-0.31967559954130587,-0.22852977127840315,-0.224447589139422,-0.047579755917421813,-0.3742048269400613,-0.49308379520554135,-0.1966854350703287,-0.0650540263244633,-0.016805960406995994,-0.4839030054298676,-0.21378144709480348,-0.17355129674503064,-0.276551396649251,-0.17405698389652421,-0.3543492791613694,-0.32432891221887594,-0.38295151233442376,-0.2474001022492766,-0.15933103151857556,-0.08918345667193188,-0.20705202177374024,2
14.75,12.15,3.6,4.4,14.55,18.625,7.075,9.825,1014.0,856.0,244.0,295.0,981.0,1193.0,459.0,641.0,19.0,17.0,18.0,21.0,16.0,17.0,17.0,23.0,-0.6623912463250887,-0.06266173697949484,0.12815028812807255,0.07370865317427236,-0.48943099394359346,-0.12969734401468133,-0.17919526251932466,-0.03858454389337451,-0.43174767709885825,-0.1774580298302426,0.16884007445062013,0.06102565894665844,-0.5679766100396394,-0.1692627157979549,-0.023349360588282252,-0.09888994193088343,-0.616051469610555,-0.26725894987069626,-0.3915339427521589,-0.25844188051793837,-0.20117539126315856,-0.26309676833880735,0.21651055734290928,-0.1801815573335128,-0.4333440937266008,-0.14983090965808266,0.25146564117286363,-0.030644012490707515,-0.48838292396820177,-0.13963069952435858,-0.24189062712498396,-0.15807403937164405,2
11.275,12.55,4.925,4.8,12.325,19.45,6.925,9.375,663.0,719.0,250.0,308.0,809.0,1220.0,446.0,541.0,19.0,17.0,15.0,20.0,19.0,16.0,17.0,13.0,-0.3282559715394523,-0.052040247381131916,-0.2348851146373879,-0.25343701327586554,-0.2632485382125901,-0.1941727178900751,-0.31451545216810467,-0.3030555387890707,0.04445666049860349,-0.2524703064925711,0.016106567866273753,-0.25244757826548836,-0.4376451173378287,-0.1252040444753262,-0.3598391949724784,-0.3615569118469144,-0.34298206337427684,-0.03982393387419218,-0.21394034154813354,-0.12041098727496506,-0.3408604966973373,-0.3310053852217691,-0.061674399462326224,-0.12501663027566023,-0.501878905668451,-0.3872739406809118,-0.1623111654508218,0.06294071006282197,-0.28323882725487115,-0.0051428690420748146,-0.23236922585970274,-0.19048635907475467,2
10.2,12.95,4.725,4.675,14.5,24.075,9.375,9.975,620.0,856.0,258.0,284.0,947.0,1606.0,584.0,654.0,17.0,19.0,17.0,21.0,15.0,20.0,19.0,19.0,-0.24237838300478123,-0.4072902828480873,0.00032527455083641393,-0.04650816773142585,-0.4220756088084251,0.07855830616750313,0.056240372313753305,-0.23276493074777097,-0.2640677432031125,-0.38833080208375076,-0.33414975611251113,-0.16728502069441561,-0.2996766257380583,-0.027032370375930977,-0.18399780384385378,-0.1052970022611517,-0.40550113581895225,-0.3083577785664574,-0.2521543704191449,-0.20905461975946854,-0.5544428578615244,-0.32361626394510545,-0.3612374578854177,-0.3324465666328941,-0.5243022432244377,-0.21162373830671102,-0.040359800216249735,0.06579000556325056,-0.42978185575374317,0.017731325084320064,-0.003387584243606132,-0.29225696688319,2
7.525,11.875,4.75,4.1,16.975,21.425,10.425,8.8,507.0,810.0,302.0,260.0,1114.0,1442.0,717.0,586.0,18.0,23.0,17.0,20.0,18.0,16.0,17.0,21.0,-0.5309652914971971,-0.13874331104870222,0.04964486909654011,0.20973764180962728,-0.551756319994353,-0.04616724683882119,0.0991807159346343,-0.2368913501905345,-0.5972214363345593,-0.5358561628983969,-0.4212000714262116,-0.2810338571489999,-0.23933323892359612,-0.19097368787162072,-0.05929907137722647,-0.15747436989528685,-0.655384358333325,-0.4186618820971921,-0.37557572705704106,-0.04996535889622648,-0.5805591363209724,-0.42252279943821747,-0.4815905811899971,-0.288092936015486,-0.6943624562844259,-0.23514432373882083,-0.16666262200535997,-0.11136752520339181,-0.526952383518902,-0.16114080874604986,-0.1574188698753729,-0.0183462716157892,2
7.475,9.65,4.55,4.325,12.325,20.725,8.9,9.2,514.0,619.0,308.0,253.0,738.0,1419.0,580.0,593.0,21.0,18.0,15.0,15.0,20.0,18.0,19.0,14.0,-0.5783168875682123,-0.09543646147697638,0.06369636504216158,0.07290284706303833,-0.38197005212612456,-0.0366866481981278,-0.2085633414758328,-0.23711096639851076,-0.5090984944194309,-0.41657844035656494,-0.47505581065066854,-0.3996489781823521,-0.16044444665801724,-0.06162950039573406,-0.17851834250077228,0.019362877736376474,-0.423070306839258,-0.23633825829048102,-0.009029757102847955,-0.010496607223024429,-0.533131126269484,0.07346473474237811,0.009474530474189847,-0.2215436247248464,-0.595293291697829,-0.2648618886881743,-0.3337061688234523,-0.33832609669493247,-0.44582689874510806,-0.08214968054124737,-0.019650955608682994,-0.0457690930500029,2
7.9,14.075,4.125,4.975,14.425,18.275,9.425,9.475,522.0,932.0,282.0,286.0,994.0,1110.0,605.0,608.0,21.0,16.0,18.0,15.0,21.0,18.0,20.0,17.0,-0.4440680501472513,-0.023605734365199017,0.08245719663766747,-0.07763645716284238,-0.5298516739466823,-0.21877253738533958,-0.3633130366688376,-0.4556371606215208,-0.45111752229231444,-0.21993232754074532,-0.24990955798318326,-0.16139422522334934,-0.4583286726779651,-0.40424376262020445,-0.3619470674060583,-0.31662563331301447,-0.5692413050528027,-0.3065051129462789,0.12978701275659185,0.025390407839993384,-0.29080180346880047,-0.3065958806824727,-0.1889147550550835,-0.3374352794727106,-0.5049119781179889,-0.35875617696020146,-0.12174384443759016,-0.15420161126058943,-0.4709161007667402,-0.11063461284454013,-0.17026776003486324,-0.30113421156537196,2
9.475,12.85,3.9,3.45,16.15,18.425,8.175,8.4,619.0,869.0,237.0,214.0,1109.0,1185.0,509.0,576.0,17.0,13.0,13.0,16.0,21.0,17.0,17.0,19.0,-0.3627424157072797,-0.17194267692458273,0.22780917571342293,0.09950660978236207,-0.5319399258060692,-0.1446361983011792,-0.23149967939089938,-0.290282492130069,-0.16106609532683228,-0.03761773511012589,-0.14210560229554348,-0.16185058826053106,-0.20643378536968182,-0.4381327083258366,-0.12023240346204767,-0.3540002598529044,-0.6448893916832363,-0.3832517397888447,0.14706346172715792,-0.013720329815885736,-0.37492446867760526,-0.3526786269026732,-0.06690732668772155,-0.268008578955008,-0.4111234079683681,-0.18319862429599368,-0.08201704378977032,-0.09875848999960002,-0.7566187517438173,-0.5265618594779736,-0.25158393597180173,-0.18143289988727754,2
8.925,9.325,4.125,4.325,14.925,19.725,7.375,10.45,587.0,585.0,248.0,263.0,885.0,1336.0,523.0,654.0,21.0,15.0,15.0,17.0,17.0,20.0,20.0,17.0,-0.3568819559736795,-0.10942126226292138,-0.03463940596434365,-0.14724371360622318,-0.2778247125383294,-0.17801892509313313,-0.2412943324483092,-0.07490894982750908,0.04296468287129102,-0.20756352423994867,0.0793370692885713,-0.1406205624109916,-0.18126765496631134,-0.3130081085799668,-0.09927808243012673,-0.23372337258808998,-0.45753366932034134,-0.47435691659168217,0.053939301252520125,-0.01959081680056044,-0.6118267418975168,-0.2881813659379238,-0.0934067676843337,-0.21505737335492423,-0.7710284430997911,-0.3717651402552322,0.1824067020357401,0.07479965868605871,-0.3392792056240521,-0.17773236333540945,-0.031824220432889246,-0.33102594101687605,2
7.45,12.4,3.125,4.05,10.65,15.8,5.85,7.95,464.0,869.0,203.0,215.0,688.0,883.0,366.0,500.0,17.0,15.0,9.0,16.0,17.0,17.0,13.0,21.0,-0.4274540974643594,-0.3330472967154656,-0.21731427103976855,0.08711935460414912,-0.5742915606902985,-0.3892889464116816,-0.43907882206166027,-0.2242569605089344,-0.33464787105606986,-0.1639798610094042,-0.19945014952218945,-0.3078629597326002,-0.14390001052066057,-0.4693207680616125,-0.1767036599171673,-0.5835937139233698,-0.4981562314382825,-0.2591270926954592,-0.0931072885900073,-0.08647391402588574,-0.33496149711114825,-0.3474036306630651,-0.18759794336603255,-0.2938426075004731,-0.48639482354930574,-0.3827846774936476,-0.4048099167431565,-0.10945530942800931,-0.3977847112144743,-0.33073770362306093,-0.14757047957051878,-0.08122241749515947,2
7.7,14.025,4.025,4.2,10.4,21.15,7.5,8.6,522.0,915.0,224.0,231.0,662.0,1418.0,476.0,471.0,20.0,15.0,14.0,15.0,16.0,21.0,17.0,12.0,-0.5378849200560853,-0.31344594154692157,-0.233721237180278,-0.06397683117373903,-0.2723032149400393,-0.1906811971334251,0.04326294149460267,0.0639523284225366,-0.2525300325899504,-0.2796723970308156,-0.3763684375904306,-0.270445113011528,-0.26302066785452916,-0.3762605600220959,-0.3921308530969575,-0.2591936929501189,-0.16092872028436273,-0.006487690420859863,-0.11395662075379837,-0.04190543005228257,-0.6083754735005268,-0.3246975206149585,-0.1292207586173825,-0.2432446855191547,-0.4112520733804515,-0.09276543394360494,-0.10564241385993534,-0.15429522174768692,0.11502942654147634,-0.05928445240109074,-0.024146137598362302,0.10030108450785509,2
12.45,19.425,4.65,5.975,16.625,26.45,7.775,10.15,898.0,1220.0,304.0,383.0,965.0,1693.0,540.0,673.0,18.0,13.0,19.0,17.0,14.0,19.0,19.0,21.0,-0.6674018148831831,-0.3761458989668344,-0.07556024432084804,-0.08447010762548664,-0.4665894562509546,-0.31248138528366826,-0.06164671634513232,-0.213293093811409,-0.4729660110642786,-0.29091562178261304,-0.02413805734797401,-0.06533760907714406,-0.5395954357644805,-0.5211719149286397,-0.2839413842708118,-0.3097712133807885,-0.20355655183773563,-0.18400951170250002,0.07101002043281804,-0.0363822692571715,-0.45225394491889626,-0.14794372243659917,-0.2906359212443772,-0.3574622084495341,-0.5270103312497355,-0.10386013784149403,-0.10862153334806499,-0.13160253743950256,-0.34528424792594986,-0.1571098415766988,-0.30944603881567134,-0.2919474375377141,2
14.7,24.4,5.575,6.025,15.175,20.8,5.8,7.8,1073.0,1629.0,336.0,392.0,966.0,1222.0,382.0,505.0,20.0,18.0,16.0,17.0,19.0,15.0,18.0,16.0,-0.8770061131905527,-0.5799653464809051,-0.2441712927669679,-0.09145056128613399,-0.606783424500744,-0.6065749926032967,-0.37437789655131914,-0.455114671440148,-0.25229319052335225,-0.5468273905274914,-0.05695787290080633,-0.1547068581144446,-0.5109660836347529,-0.6559899169233443,-0.1810648243413222,-0.2703677647453929,-0.41661338301037365,-0.16343253868528793,-0.1488120140709356,-0.06354665325382199,-0.18961096861377097,-0.0646772993892792,-0.005362250050263066,-0.08184351418312168,-0.25535348184689194,-0.0627817127645283,-0.030026569507005534,-0.01086526994115395,-0.3613878131910486,-0.3572360235737095,-0.251316441950181,-0.2568585015343027,2
9.8,17.7,4.15,4.875,17.2,20.45,6.275,5.45,660.0,1099.0,260.0,281.0,1172.0,1419.0,418.0,278.0,15.0,21.0,14.0,15.0,20.0,21.0,24.0,10.0,-0.7366758343442387,-0.7951108401886516,-0.4086555656896511,-0.2641168317101678,-0.4433439814587506,-0.45138859778340756,-0.29849151599954876,-0.20281972255637834,-0.0009824334591959744,-0.36060944635043396,0.20212334333562362,-0.29690025825319666,-0.28130508487614725,-0.32016795495633144,-0.30430447914641096,-0.13237200097375618,-0.7107720995846999,-0.40288064586641714,-0.2559770833961264,-0.07526676391437225,-0.5478644793654747,-0.09903851783988377,-0.025607976415870204,-0.008223735312752651,-0.43372094192011096,-0.14613713218959756,-0.16387552234375852,-0.15089397394141812,-0.015533315081265547,-0.4498458964121212,-0.17555244342724502,-0.1900062849351071,2
8.95,15.85,3.025,5.15,11.475,21.55,6.125,10.0,585.0,1075.0,185.0,307.0,730.0,1472.0,389.0,614.0,14.0,18.0,15.0,18.0,21.0,18.0,17.0,21.0,-0.5053248058582642,-0.43830201216124304,-0.1898794175321468,-0.15393984225006282,-0.48300576236763487,-0.1573516341304174,-0.21159210464990794,-0.20604259502156264,-0.14219323590402802,-0.12080903626725338,-0.0457913732648117,-0.14391677204331663,-0.2739121428964749,-0.40436913051607787,-0.4214568274765259,-0.1500598621976703,-0.2359138894146484,-0.23400895784141068,0.04601417364177135,0.22051031244211633,-0.7744404811783284,-0.5064619685479299,-0.18767121364420694,-0.059212631481337125,-0.40089781555145304,-0.3047142972833628,-0.2560235313702615,-0.26449070269661434,-0.39830858182971574,-0.422241234025685,-0.21851850705981335,-0.2247931970232348,2
7.325,12.7,3.75,5.375,16.075,17.875,6.575,7.0,426.0,837.0,232.0,307.0,1023.0,920.0,402.0,457.0,16.0,18.0,16.0,12.0,18.0,13.0,15.0,17.0,-0.5477922771089758,-0.540407336876298,-0.304337189017034,-0.2133366222019794,-0.6208948984542519,-0.4907754423940943,-0.4109203725979728,-0.2915842190628345,-0.11765069707599973,0.35407560269180827,0.0824384207784909,-0.4701496223751294,-0.07533868117471117,-0.09536585193620628,-0.0556262592244239,-0.4920597444512888,-0.5599467965976159,-0.29281641557231036,-0.1625375764572095,0.07313994539481483,-0.3182930029308382,-0.36859076046543704,-0.43048823037982786,-0.31482468925333806,-0.20400642606286343,-0.18038348759036152,-0.06682917087981749,-0.30148853207304277,-0.21354782434934813,-0.3482494400400371,-0.12578775756660313,-0.14240966195386742,2
7.125,12.025,4.425,3.9,19.675,20.825,7.65,8.425,422.0,854.0,247.0,213.0,1302.0,1263.0,506.0,562.0,18.0,16.0,13.0,11.0,22.0,20.0,21.0,16.0,-0.42012311710885036,-0.25392206037738546,-0.3901710716015919,-0.19412801281726844,-0.3549265151713837,0.10222176647885357,-0.18733024052963226,-0.17255527450440908,-0.03509755279279698,0.1167124990772325,0.020664014945336578,-0.29140945267827445,0.022473207228316472,-0.01029052087323198,-0.08527172648580653,-0.5062117138319447,-0.5014536840870013,-0.3105920701692385,-0.361494026552343,-0.10394977049186839,-0.3641833615408808,-0.29365296001335844,-0.1053978944980499,-0.08808932999634275,-0.7237308989627255,-0.519978738678088,-0.28322538798714786,-0.2937591726976997,-0.31177869814246467,-0.37239408952993985,-0.07425130057479162,-0.38057369304919697,2
5.925,13.3,5.675,5.7,18.1,20.825,9.175,9.35,402.0,930.0,350.0,363.0,1143.0,1303.0,588.0,564.0,18.0,20.0,17.0,18.0,17.0,15.0,16.0,16.0,-0.5490939604786076,-0.31224774792051785,-0.3092997148245335,-0.10655406373684927,-0.4968684545032906,-0.09766590550398102,-0.011494883537829436,-0.012140990194653433,-0.3511726790985551,-0.2085933959343504,-0.2315975133762911,-0.47357284210809375,-0.3372266935292453,-0.31764643261354986,-0.33154682155712645,-0.36790735752730835,-0.678565083788636,-0.8260873696462423,-0.5841158122126288,-0.37096459190121645,-0.7825823082656682,-0.851602996636736,-0.7403517458083315,-0.47344573335015966,-0.5897010473002181,-0.4468417370953766,-0.22885743906255512,-0.2633297158610177,-0.36049396155361596,-0.27354924582157725,-0.3113602994263588,-0.28985738727526333,2
8.45,13.25,5.9,5.175,15.6,24.7,8.975,7.75,579.0,863.0,380.0,306.0,1026.0,1506.0,597.0,496.0,23.0,18.0,18.0,13.0,17.0,14.0,17.0,20.0,-0.5094503298267206,-0.23184144680438465,-0.03303002743731335,-0.09452109885157488,-0.7745872909953544,-0.754394627805575,-0.5776931489053496,-0.39995490661418853,-0.43153394956463287,-0.3614178236605661,-0.20096599340278604,-0.49496545761463406,-0.44910309535956927,-0.5569576301942255,-0.5065981326571948,-0.4781598928225469,-0.44243028072612717,-0.3574456220582418,-0.29520892775310004,-0.25967192620033397,-0.6114746800080496,-0.5666381127220641,-0.6471791759796162,-0.5205655479879829,-0.39593869942255244,-0.3701984128845924,-0.1666952635135269,-0.38602504842626656,-0.298132278423941,-0.39721883833671395,-0.394724091107554,-0.1710379514359166,2
9.725,12.55,5.075,4.325,13.75,19.55,5.05,10.05,666.0,795.0,297.0,198.0,917.0,1280.0,246.0,611.0,20.0,15.0,13.0,10.0,19.0,17.0,12.0,15.0,-0.6420896012263534,-0.44261859098385403,-0.37043737432484175,-0.28390411423414835,-0.3928955368572908,-0.3782568696696087,-0.19567743249864689,-0.35300359504767526,-0.25059616956788844,-0.08252327210740742,0.197415449987137,-0.2030859843040475,0.07471491972877381,0.0001465444123062154,-0.19353332941012866,-0.24982597507324603,-0.4909038914863066,-0.3173325775091665,-0.22570633336285545,-0.24727784277293133,-0.5827018659840415,-0.47158934640590433,-0.4651969075097931,-0.36262742424752614,-0.19986842971156443,-0.21720709398317042,-0.29796992726967514,-0.4210275506193232,-0.3351610057749771,-0.20012493479638813,-0.5055800936897501,-0.1930186142803564,2
7.15,9.75,4.35,6.075,9.875,19.1,6.75,10.325,500.0,497.0,243.0,283.0,575.0,1257.0,458.0,646.0,18.0,15.0,16.0,15.0,19.0,20.0,20.0,18.0,-0.5193542670731417,-0.003256063508162697,-0.11994796280282821,-0.3247058164777852,0.29059566264474196,-0.2470077061997538,0.2990538820587962,-0.3400388869938923,-0.07025232945374574,0.030969893758649048,-0.01074121505497781,-0.1726197745021908,0.06284267480734143,-0.17079558763995242,-0.20769383760310353,-0.264545563410003,-0.3053486620742277,-0.2863057163716064,-0.26012312229859574,-0.2526399250242441,-0.33817676600118135,0.008769087704935227,-0.0067274329599703465,-0.23489885146036263,-0.5056964925638954,-0.27100823498394333,-0.0773564213123378,-0.34415205317565806,-0.3366348635039318,-0.0411813627708401,0.06047519161987262,0.05808577178806399,2
8.875,10.35,4.55,4.75,14.5,21.3,6.5,10.15,624.0,528.0,257.0,269.0,965.0,1303.0,381.0,594.0,21.0,15.0,16.0,16.0,21.0,18.0,14.0,16.0,-0.5015980714263133,-0.18665203945609085,-0.3432900199157977,-0.39403557738857414,0.12649382246814184,-0.6094478067373373,0.08345292428721088,-0.5035352875472334,-0.1518488808421632,-0.08952106559701248,-0.02758421966459565,-0.14224267027202753,-0.26012323629144096,0.18626228292271244,-0.23482832267627649,-0.41791411614164026,-0.696802490260136,-0.3398035165312738,-0.0705046308793915,-0.038016524858295646,-0.39488035537671495,-0.13036450925074844,0.09334219183482345,-0.11759003544743486,-0.4181356649849158,-0.4078101642319098,-0.20959291085848608,-0.343620615382674,-0.3344941897847343,-0.48008667807213073,-0.23187681429844534,-0.21758794687921562,2
9.0,12.35,4.55,4.95,10.625,21.55,6.475,9.525,556.0,792.0,241.0,249.0,763.0,1224.0,404.0,614.0,18.0,17.0,14.0,10.0,25.0,20.0,15.0,16.0,-0.43969691020445456,-0.5005131342588766,-0.14747314318437818,-0.2641075842015219,-0.4048207812772828,-0.47295860119856653,-0.0030478239292581967,-0.3082279714879016,-0.21055965273903024,-0.5189089138627795,-0.16595596813982427,-0.3076405946651328,0.06780163937999582,-0.3496481949501462,-0.2472211447657402,-0.2178064785322941,-0.7364357417223868,-0.27028781769329563,-0.14138364902247774,-0.056661437926355446,-0.1763703025148069,-0.06399872335559198,0.09978694058541587,-0.07296406957579105,-0.4663824471043673,-0.08870477595959407,-0.17249946487047,-0.15414940009484995,-0.3935982049526142,-0.3463156400705373,0.14608679672807318,-0.07621708501811768,2
6.75,17.175,5.5,5.2,10.675,25.025,7.075,7.925,394.0,1048.0,350.0,251.0,720.0,1473.0,455.0,441.0,14.0,15.0,20.0,14.0,16.0,17.0,17.0,16.0,-0.3817277152689363,-0.3175150271745774,-0.0038998248861977242,-0.08277965135682153,-0.5853636145201425,-0.5690702806559684,-0.4438657351237048,-0.5344588252914415,-0.32796382322790485,-0.17066796343076043,-0.2843671639368371,-0.03724285616973551,0.2219208123983361,-0.3208981680723512,-0.13730058112558594,-0.1088539150632018,-0.6038892148748106,-0.3067106749133199,-0.5081073878073586,-0.3112563778907576,-0.23193115097936406,-0.184305060168507,-0.018032186451904162,-0.3373647630252983,-0.32641307687890164,-0.14007257664625608,-0.21764898324634493,-0.263181564779065,-0.20874978733174926,-0.343327312549138,-0.13949273553348096,-0.108335524249594,2
7.375,12.45,4.425,4.2,12.9,20.475,6.9,6.7,472.0,741.0,261.0,260.0,862.0,1412.0,454.0,397.0,21.0,19.0,14.0,16.0,20.0,23.0,20.0,15.0,-0.41663339477899336,-0.22271819025815548,-0.23163889968557588,-0.01744975745918421,-0.3754932452488439,-0.4463977122565334,-0.20368167567001896,-0.3625366133327636,-0.30361355448767435,-0.376554684004975,0.10992591164717617,-0.013744479275176144,-0.2553004751166384,-0.38623495628568705,-0.14180716537682025,-0.3358296655807655,-0.6689430381568392,-0.6615835870025559,-0.4652384018621749,-0.43987962537640574,-0.6323817466363476,-0.2709568078711521,-0.42699527109311614,-0.4720301839645394,-0.47869541474188726,-0.32545180835506377,-0.24572335980985233,-0.284695649591655,-0.19368204821463722,-0.4527718819653463,0.030873648212639566,-0.23269064539490272,2
9.575,12.95,3.175,3.425,14.55,12.925,5.4,8.575,662.0,836.0,185.0,207.0,1038.0,844.0,377.0,567.0,18.0,16.0,18.0,10.0,21.0,19.0,19.0,19.0,-0.44250847694904466,-0.21302147513277325,-0.13419667033729682,-0.08975478822642016,-0.41784661218258934,-0.1831340483273075,-0.1920387497831211,-0.3345559404153218,-0.3465928830226659,-0.15351349327877825,0.004107980884040071,-0.2798609360740443,-0.16194445222610934,-0.15038357605802138,0.09806350686951473,-0.3074932871947224,-0.9264510377163876,-0.7506739163436841,-0.43177907495828405,-0.35548120061241484,-0.5108660014934752,-0.18747928425933647,-0.1901287237718174,-0.21904949715464034,-0.3936591328737109,-0.1737504193950239,-0.21982493398077516,-0.21737541031578728,-0.5730334639265773,-0.2511403113404611,-0.348927069880192,-0.3940257053709658,2
8.45,13.0,5.225,3.825,10.725,18.575,7.225,8.625,535.0,964.0,283.0,188.0,661.0,1247.0,455.0,506.0,19.0,22.0,11.0,11.0,17.0,17.0,16.0,14.0,-0.1735487870884311,-0.3003956060168941,-0.37766888975732943,0.04955356231092011,-0.39456143505291985,-0.08111262292357964,-0.2647048927660733,-0.259075204092544,-0.13164326088287406,-0.09290191679493999,-0.19645857586505583,-0.11498478995131661,0.25942020348184675,-0.1343124214592786,0.0727598059188237,-0.23090958696503072,-0.5153218882202301,-0.6620033647091998,-0.2598507443263961,-0.4381636951782591,-0.7000321178956577,-0.3091393577859313,-0.16971287408159072,-0.17647112086737973,-0.2770676013542139,-0.37807115768962124,-0.3507817062988847,-0.06509774981143354,-0.11278115991557768,-0.22945699905724434,-0.005532614037117725,-0.08412568220749422,2
7.9,13.8,5.4,4.325,10.35,23.25,7.75,11.6,532.0,939.0,321.0,251.0,699.0,1612.0,460.0,740.0,20.0,18.0,15.0,18.0,17.0,18.0,19.0,21.0,-0.7327956916524841,-0.4268482441293607,-0.3976883169094412,-0.28229482320822563,-0.42856760538983224,-0.17925098728285596,-0.2190768465268541,-0.10017023228452102,-0.285780074144871,-0.19156801223937278,-0.18247436063104855,-0.18581013779982083,-0.08814373403756771,-0.06993709260907258,-0.18232191153188135,-0.05500238118399656,-0.44717411767359555,-0.3635452333435539,-0.22177839059358115,-0.4907234719602872,-0.49370514079784694,-0.07060444348372814,-0.12548185661956007,-0.24440219178211095,-0.49734821644928484,-0.4465901732058355,-0.4815028907413585,-0.22465134255372732,-0.5167685929094061,-0.2309759350009267,0.20399442507318177,0.11233249003367524,2
12.15,15.775,5.625,4.475,10.775,19.9,7.1,11.75,885.0,917.0,367.0,279.0,787.0,1267.0,438.0,797.0,22.0,18.0,18.0,17.0,22.0,17.0,18.0,21.0,-0.5860940385901976,-0.165338125426074,-0.22738352772492473,-0.1144236558706575,-0.1656622338845932,-0.3523605087048372,-0.040610376192361256,-0.22785288273203871,-0.4521817528587381,-0.11643295659732276,-0.2088136663515383,-0.17957953243751792,-0.3724343007627765,-0.2862665816395851,-0.12005919334631314,-0.32449479003487797,-0.633913725755131,-0.1075354908177516,-0.023109220040102674,-0.08800810284352541,-0.3121241166111188,-0.3052013063871939,-0.030853834678663584,-0.08790768846168578,-0.2351758639663984,0.1966832663857795,0.1806669868053996,-0.15079309224568274,-0.4744682202231684,-0.16580178658333852,-0.20674283141482716,-0.3692890902490779,2
10.325,10.425,3.55,3.55,10.4,23.575,6.75,9.925,662.0,602.0,245.0,232.0,713.0,1583.0,426.0,630.0,15.0,17.0,13.0,18.0,17.0,19.0,19.0,20.0,-0.3134520500649382,-0.15449799724680904,-0.14674504795157362,-0.1014402579225297,-0.41182772176207777,-0.43817050973938987,-0.2686941799264945,-0.3357423903363463,-0.40429641917649334,-0.06720928231315773,-0.147230472693486,-0.209663037372457,-0.5414724434859798,-0.1568216978544622,-0.1992299661758005,-0.2284722396973951,-0.4584484803173974,-0.0331471200395923,0.18624978861610106,-0.07184762559289151,-0.4314157485632579,-0.16048084284281838,0.1943946289087054,0.001179039124323496,-0.30632394098512644,-0.0914236667162692,-0.07298789696265982,-0.06619499136565525,-0.6470276652145218,-0.2632313365006654,-0.20490803544338054,-0.19928638914387833,2
7.075,9.375,3.95,3.475,11.55,21.3,7.225,12.375,426.0,496.0,247.0,216.0,735.0,1429.0,484.0,896.0,14.0,15.0,14.0,15.0,17.0,21.0,21.0,20.0,-0.2287108797192322,-0.16128272432536192,-0.3168323288171402,-0.36031533339604943,-0.1046518362088397,-0.2713757059451881,-0.08957063260165561,-0.2486931784605042,-0.1603997233998048,-0.4073654315144008,-0.06522356175576571,-0.275875502814595,-0.43925670531821764,-0.3414924578406739,-0.2630837899670847,-0.17929947658019824,-0.21755200084775292,-0.06358242030694361,-0.07069962618600861,-0.10150398252769095,-0.46737491257357633,-0.14241701915878666,-0.09631141403382268,-0.20556145747852736,-0.4230831868468443,0.010481983763519194,-0.05314930040776149,-0.1314816931907725,-0.7943379143771114,-0.47835587505041305,-0.46030395224441895,-0.39272918918601957,2
8.45,12.075,3.8,4.125,11.625,17.2,6.95,9.075,554.0,649.0,209.0,250.0,747.0,1023.0,468.0,632.0,17.0,15.0,11.0,12.0,17.0,16.0,21.0,21.0,-0.5243430101864145,-0.31107925985920337,-0.22048693229782065,-0.376215111371142,-0.14592694988310145,-0.17677296214655636,-0.016728944197505653,-0.18104191540662054,-0.04107846930779174,-0.10038215596009618,-0.17117690897663185,-0.2691662760384369,-0.23294683676089584,-0.06943205858298367,-0.24977633132361043,-0.46182530888343076,-0.33679990801703574,-0.331644178715885,-0.28046229642469506,-0.012890024100593795,-0.3596156949072305,-0.591561484073006,-0.19761947958563486,-0.27070107744591065,-0.6188925907322599,-0.4009262655313396,-0.17732003891037246,-0.12676783777474765,-0.6020080733866052,-0.47842740137859363,-0.18136589576451975,-0.30092925009603355,2
8.925,13.575,4.575,4.6,15.725,22.525,7.875,8.025,629.0,818.0,280.0,283.0,1034.0,1457.0,551.0,562.0,20.0,17.0,16.0,17.0,17.0,21.0,18.0,22.0,-0.38569164997927513,0.10811015078071802,0.05059820006019192,-0.056233164387237404,-0.35194929242407325,-0.2626400269814729,-0.1581654263959538,0.03090654453907052,-0.5075872469503777,-0.28100251989154296,-0.36375230687866644,0.02497043880093505,-0.6230206418105806,-0.5256226710194912,-0.4595542307476806,-0.18865849989733496,-0.5245156786540336,-0.5377992982153229,-0.46544891664512983,-0.38965915298893467,-0.5612041233923473,-0.5197896872607964,-0.003435568511352372,-0.25123814481588475,-0.6170475880260873,-0.2808642992335737,-0.16573685249107442,-0.106637320214204,-0.41173914538492806,0.08779765957397784,0.037346785483083865,-0.11915944575739214,2
9.3,11.475,4.975,4.15,13.35,21.55,7.925,9.925,608.0,724.0,311.0,224.0,712.0,1366.0,490.0,614.0,22.0,14.0,19.0,13.0,16.0,17.0,18.0,20.0,-0.3674514504055781,-0.25410376376464394,-0.04351756688693016,-0.19455305970594014,-0.33964357659471345,-0.37657683998138924,-0.33803715432913395,-0.06253965212667624,-0.6100887658892568,-0.5041772956903183,-0.38410161999084735,-0.03701346423139017,-0.2191597675701485,-0.3549304694275787,-0.21124097260759794,-0.09165740428034726,-0.22789348389445507,-0.3371253169061366,-0.12491441229946199,0.21996646148173882,-0.35803257536480354,-0.25868110707916586,-0.1766164245596876,-0.36157724396869634,-0.3943001729667034,-0.1262913341279725,-0.2880009108851305,-0.3955530012215891,-0.2547847029762212,0.031386560532427284,-0.14078448189654033,-0.2438805979358054,2
9.825,13.4,5.4,5.325,13.325,19.3,6.725,10.35,616.0,764.0,274.0,304.0,800.0,1134.0,390.0,606.0,17.0,12.0,6.0,16.0,18.0,14.0,19.0,17.0,-0.30998167513018815,-0.1251183421300572,-0.06808554062288746,-0.19197413367758204,-0.4030472439458553,-0.5502380565585546,-0.3435075376167642,-0.29342032767562076,-0.0043393711703298655,-0.24114423541158128,-0.08441636328130542,-0.17815472955868322,-0.06116233418554332,-0.032411130292754727,-0.18312571466416658,-0.28090389308880925,-0.3257703308063672,-0.3421770016854633,-0.05057599342836057,-0.03817047329750287,-0.28099274184168893,-0.2519017008987212,-0.23857179299765835,-0.4990363331613899,-0.1018021981177907,-0.25603456613936704,-0.008702967100590315,-0.24397936969261352,-0.19537221600850874,0.07630432964795479,-0.027083891721563818,-0.12429583043486019,2
7.9,12.925,5.55,3.775,10.775,17.225,7.325,11.625,550.0,738.0,346.0,205.0,698.0,923.0,440.0,698.0,18.0,17.0,19.0,12.0,16.0,16.0,16.0,16.0,-0.3603552523400499,-0.05749091358405071,0.06272033398503464,-0.3134528282836321,-0.3234753996819316,-0.2580559803330176,-0.43639179888414203,-0.1125970967776889,-0.3291703715933619,-0.08693866048849681,-0.2992454640655249,-0.17573627038047968,0.05704041974039783,0.06730070814593901,-0.225520610419129,-0.13706473884336398,-0.5931585061776377,-0.46988700442023007,-0.22159851832091762,0.013219107305055119,-0.19473658935469287,-0.21969691657655022,-0.2593064861581021,-0.4235316783539252,-0.00969191122316767,0.10478620898229304,-0.4310579230801788,0.03461913208557543,-0.5422283129731882,-0.35517457026483895,-0.2561124087953626,-0.15151762904048965,2
6.75,11.8,4.625,4.0,13.725,18.15,6.125,11.025,410.0,823.0,292.0,233.0,824.0,1089.0,357.0,753.0,18.0,22.0,17.0,17.0,17.0,18.0,15.0,21.0,-0.23879614350273295,-0.19439497719310994,-0.025600048477532663,-0.33583007206156634,-0.41702982618379536,-0.08187976886493413,-0.3752970127548223,-0.11875609587737246,-0.316641753605956,0.014224009989408077,-0.08628821052205629,-0.1879130942670345,-0.3146804527082354,-0.3145243388333744,-0.14618907817896634,-0.10705324174961582,-0.5559517931970105,-0.5194384518877391,-0.2963615706665387,-0.485446056659927,-0.32428018461391406,-0.374965244587741,-0.2543441860260334,-0.41941722866210474,-0.2028974710446849,0.022006258579988645,-0.28297248581044504,-0.01919963308019865,-0.6554154941743863,-0.38760653480374613,-0.04506626831329442,-0.17648935623698395,2
7.45,8.45,5.275,4.4,14.0,20.6,5.5,11.275,425.0,483.0,311.0,266.0,905.0,1290.0,321.0,762.0,15.0,13.0,19.0,14.0,16.0,18.0,16.0,21.0,-0.3213000413109039,-0.33577627371804436,-0.11060072490379147,-0.34568579690821183,-0.023697238975900935,-0.3814461782683152,0.13275616419657194,-0.28167472449155834,-0.2606830800383076,-0.061864177605934406,-0.13174672646341146,-0.18842595398648587,-0.2390754312761484,-0.2797774666700238,-0.11807360382597591,-0.40071074941710394,-0.611683499054496,-0.4771134586201006,-0.1323589635114978,-0.1464038885164261,-0.6594876967511953,-0.6254429204188606,-0.3408913454128629,-0.25561359785448823,-0.316893996134444,-0.27540305497261264,-0.015973368553895383,-0.20138845746449435,-0.6162786862619748,-0.25383989012548264,-0.057351785195451144,-0.31961389888515307,2
6.275,7.775,4.0,3.975,12.5,22.75,5.7,9.325,422.0,434.0,258.0,265.0,820.0,1496.0,361.0,625.0,20.0,14.0,16.0,16.0,18.0,19.0,16.0,15.0,-0.613580124332739,-0.39048942468899467,-0.22195944579911014,-0.16474054018606055,-0.21675551846915353,-0.3282289753830951,-0.12728041140443014,-0.28831466684426704,-0.5985800697299981,-0.22011664939325476,-0.2686438506518008,-0.36524823655547134,-0.6424897760558138,-0.24295076582508984,-0.6002920935955034,-0.4174955174716474,-0.403230754788172,-0.515048627539863,-0.019185038142788602,-0.1532634183351088,-0.5019484339601691,-0.2438575771979032,-0.04673721208387616,-0.03602364163666511,-0.4404459824104094,-0.23562217843733843,-0.30075897287498143,-0.5394167990884011,-0.6502447671485846,-0.2156268491010672,0.027777009300213925,-0.113201641677965,2
6.775,7.325,3.7,3.75,13.525,18.25,5.8,9.125,485.0,443.0,246.0,215.0,965.0,1236.0,370.0,620.0,20.0,17.0,18.0,12.0,24.0,18.0,17.0,20.0,-0.4465069092653732,-0.10458503765408679,-0.2630295392244969,-0.3385730573493959,-0.2885568099525712,-0.33080199572932584,-0.10652025700315843,-0.35070616812692934,-0.49547869197256716,-0.16445339333584838,-0.10528179796747496,-0.02964393603438375,-0.2824316290234225,-0.12791802280726813,-0.3087962491695673,-0.3361200277875281,-0.6478047996524647,-0.12004281883278968,0.08108839845705755,0.10616554853497198,-0.6344859215557231,-0.41841959803419865,-0.6117737551068405,-0.3192347367668183,-0.4066435371906913,-0.15077097355312397,0.026711809050709766,0.010594844667404837,-0.5979505344475324,-0.16291749308198172,-0.3674423897655342,-0.44411840266869645,2
8.525,12.4,3.6,4.175,9.325,16.8,7.4,10.175,615.0,706.0,226.0,216.0,543.0,1033.0,518.0,663.0,23.0,18.0,16.0,13.0,13.0,17.0,19.0,13.0,-0.479151184656443,-0.12229970113573574,-0.3144010849629531,-0.10106351055886434,-0.23046404608496054,-0.4468348572201447,-0.3272259814110277,-0.19152884594150663,-0.16925003486907494,-0.13126066862192526,-0.1721388583903039,-0.37148479947051394,-0.11399360380464839,-0.386934816128705,-0.2291985802807985,-0.3062533313001404,-0.26141484331439785,-0.23247651955273843,-0.31960019419969704,-0.3195559136462805,-0.550255927452335,-0.5814463198779211,-0.44430215063930806,-0.398605418126767,-0.5162954030500873,-0.18841754709919825,0.00204870640063088,-0.11673133221643582,-0.41021961554670094,-0.12246356272515617,-0.07241601906052189,-0.30066714111261156,2
7.9,10.25,4.8,4.325,11.075,18.5,7.425,8.675,563.0,614.0,272.0,228.0,696.0,1190.0,500.0,547.0,16.0,15.0,12.0,17.0,13.0,17.0,17.0,16.0,-0.2938194144196653,-0.05426447346767621,-0.31749721107229967,-0.20381957705541878,-0.35646339787969,-0.4765058697752766,-0.4814201376968609,-0.3933045915817693,-0.2575255524719691,-0.1591392221722969,-0.3777273869934682,-0.3470259071971905,0.04132012195458686,-0.2246223578436399,-0.28890499395394403,-0.025962943368442275,-0.6350030922367473,-0.5135237063347068,-0.18031607020696824,-0.18545183944776686,-0.5601931382246548,-0.24396453545516564,-0.1947379273014568,-0.10590563200103156,-0.41114788190883106,0.02038171671708614,-0.25840081250672586,-0.3724592436955973,-0.4125024321730089,-0.07590090815328658,-0.15872567011541694,-0.13263162813562757,2
7.475,7.225,3.875,3.75,16.05,22.425,7.025,7.925,500.0,463.0,252.0,228.0,1139.0,1433.0,406.0,494.0,16.0,19.0,16.0,18.0,22.0,20.0,16.0,16.0,-0.4693623029479201,-0.28018846260158503,-0.2052018056461141,-0.20901555370303765,-0.560444559898749,-0.472128174260751,-0.3611387409213287,-0.16974442913474558,-0.4251065632353486,-0.3177108084883679,-0.42310288845301575,-0.3768636027705351,-0.4992794071600919,-0.47180562916612817,-0.5992497741460887,-0.3517514013676276,-0.6710496845775263,-0.3877910678955363,0.03542709156341624,-0.14880144074338672,-0.4064058823112487,-0.32935866627665983,-0.23921201535898018,-0.3208014196125226,-0.15459171736593447,0.04807961343412816,-0.27795576675851,-0.2623974433969138,-0.4422492895989201,-0.42161336826301715,-0.4855984318099389,-0.27862292047485604,2
6.7,9.025,3.275,3.425,13.55,20.425,5.0,13.95,417.0,658.0,220.0,209.0,917.0,1263.0,261.0,897.0,18.0,21.0,17.0,17.0,20.0,14.0,13.0,18.0,-0.11475894234211198,-0.07939260192659718,-0.22426400056544893,0.02330930301296502,-0.8381871385320531,-0.6213992964332835,-0.6574429489726097,-0.3210628269965703,-0.6895458536728032,-0.507390859516943,-0.44704935636335486,-0.25373237231642126,-0.3296918431868302,-0.22230988031999072,-0.3231062201562503,-0.11696055407011498,-0.4526816557697298,-0.3563077381464733,0.07707775017407838,-0.19996338245229167,-0.483598927652474,-0.30917583868747134,-0.18518809873300815,-0.36708681634208434,0.14780260407320855,-0.12430377624885666,-0.20456200535155414,-0.16465839002776478,-0.3978983098979166,-0.3917369664074696,0.013006715999083908,-0.39525164443098937,2
8.65,7.95,2.75,3.175,9.05,20.975,6.65,13.6,560.0,512.0,168.0,174.0,606.0,1140.0,436.0,931.0,18.0,15.0,15.0,11.0,19.0,12.0,18.0,18.0,-0.28236871473407205,-0.10871010170400273,-0.08405925243743347,-0.2331828379261572,-0.3663588324152703,-0.4677807779986914,-0.18551203071467998,-0.33510703145018317,-0.3450957272038311,-0.4790609800422843,-0.23762721067405557,-0.357705717945197,-0.07952353597399871,-0.3272851670298283,-0.13034754655873082,-0.1894803898204138,-0.41614650556492305,-0.1851135732646271,-0.15603940428280694,-0.19394003881998573,-0.36265380845815826,-0.3794652969166022,-0.4962870853499592,-0.34641321486823967,-0.3441662878311876,-0.1688079444101445,-0.44429975957909834,-0.07700354369904343,-0.5112244152988392,-0.30943807053350014,0.06070024235236713,-0.26006969718499695,2
6.575,8.1,3.7,4.025,9.025,18.8,6.5,10.5,418.0,481.0,231.0,248.0,525.0,924.0,421.0,587.0,15.0,19.0,15.0,17.0,15.0,11.0,14.0,14.0,-0.13955149428859412,-0.050217933009808514,0.17156709280348165,-0.11569062618060003,-0.22330867614213837,-0.3413782863531602,-0.21251977870934763,-0.10667158620961642,-0.42890073819891567,-0.10733447808856791,-0.4283390096762698,-0.3946374346429701,-0.412068100223448,-0.06332944018980519,-0.4702344781732617,-0.404160270456427,-0.4488304590579635,-0.20841876932214087,-0.3330902480609342,-0.32155647747831334,0.07537368431907646,-0.26506491555735223,-0.08741982466197513,-0.43736045508065136,-0.5545374805177868,-0.46548342626459593,-0.24964329268318158,-0.31005154741814583,-0.18567795229732484,-0.38956644692484954,0.04982797633587479,-0.03650444199762661,2
7.9,9.95,4.325,3.675,11.9,15.575,7.3,10.35,502.0,665.0,237.0,219.0,752.0,914.0,496.0,644.0,17.0,19.0,19.0,15.0,19.0,18.0,22.0,20.0,-0.20617931646212267,-0.4721130188475531,-0.07904535892887407,-0.5424307255689068,-0.29326669580015036,-0.1278857786226839,-0.14227316473869975,-0.09850785801081154,-0.2713381891956077,-0.3135905501909543,-0.17155977718267523,-0.038622713889733935,-0.3152169114697788,-0.220890579362383,-0.10762113336524173,-0.18337184268892576,-0.7567268143559549,-0.5078631267241076,-0.182905484946326,-0.09837990444400671,-0.2319612457635388,-0.0439293039054372,0.011241199801638124,-0.021845272872252477,-0.7121407280987487,-0.446751313923127,-0.1765104842252873,-0.2375445174755578,-0.2791782768955096,-0.16309192356280136,-0.24433233308931168,0.012458007326239714,2
6.575,6.4,3.15,3.875,12.35,19.375,5.95,8.4,411.0,427.0,206.0,204.0,783.0,1163.0,384.0,477.0,16.0,17.0,20.0,16.0,18.0,16.0,17.0,15.0,-0.15861356871136476,-0.35332600963508715,-0.15138121040645391,-0.002012329847500271,-0.2659400748759373,-0.2759285511502467,-0.04090457352514366,-0.22461617099111636,-0.33968220239571173,-0.08855670939869252,0.1380529553124108,-0.12776594642410086,-0.05616303919158559,-0.5816374127948177,-0.06844950847554078,-0.5516050441554146,-0.6580933725053781,-0.5430687020134404,-0.3736044550433997,-0.2516139201114473,-0.2670911130187764,-0.4227197993868969,-0.21434240809264832,-0.23298731197786893,-0.3902396695292569,-0.35121118188248,-0.016268297230067234,0.041314003195906786,-0.3334499265720011,-0.5592221205409701,-0.15887785051275355,-0.353319927337782,2
6.65,7.825,4.65,5.9,10.35,20.6,6.2,7.4,411.0,494.0,242.0,273.0,698.0,1217.0,385.0,438.0,16.0,17.0,10.0,8.0,21.0,16.0,16.0,16.0,-0.040627113943074694,-0.2224029089359545,-0.09310007274068521,-0.25135514051181806,-0.26667102749425325,-0.3780100685821586,-0.30018849747302434,-0.36411692571641074,0.03702164088657859,-0.3688157455074787,-0.29369943149517824,-0.08636718607998835,0.3064206139645534,-0.4701903565184196,-0.12335180799574111,-0.18252625728107214,-0.5143196426378228,-0.15252194213778186,0.08988806603545334,-0.030923285807237383,-0.4178729160231762,-0.36875567219413,-0.26556419501852496,-0.4975565880753971,-0.4722295204354145,-0.44158925493871215,-0.020812649602348878,-0.08955486492646758,-0.30318144685079246,-0.17535506619995528,0.06086033552328113,-0.3400389338069009,2
6.675,9.55,3.85,4.7,14.425,23.7,6.25,9.25,438.0,589.0,259.0,270.0,951.0,1498.0,376.0,581.0,20.0,17.0,15.0,14.0,18.0,19.0,19.0,17.0,-0.22370358810752622,-0.1339390678306989,-0.16475610326258558,-0.03038659961088908,-0.428450807759639,-0.2619447207130547,0.03595148489487449,0.012962110956458096,-0.3839067551923652,-0.2468658590077925,-0.06830909238179106,0.09695983991294718,-0.37206771119975407,-0.18332220174681427,-0.4794424357769459,-0.3145665771965112,-0.5139101617635335,-0.34201676703978995,-0.29190880136164465,-0.2784693506934452,-0.3934311398308553,-0.323119081773323,-0.11845786025783364,-0.2427230699265633,-0.3323522127343987,-0.2683877692198506,-0.009784361211152875,0.04509381780650618,-0.38324334079400113,-0.13152454496377172,-0.3887168286444765,-0.31226632892032374,2
9.525,9.125,3.575,3.2,14.325,16.55,6.375,10.0,564.0,600.0,235.0,175.0,965.0,1053.0,395.0,701.0,17.0,21.0,14.0,17.0,20.0,17.0,17.0,18.0,-0.4660764592104281,-0.46531406758563754,-0.37728659829901445,-0.26848923173975037,-0.5471830246965417,-0.19976075349176578,0.0012829521040957712,0.019001617550952664,-0.443713618107493,-0.20101736629141229,-0.18513861369587667,-0.007933696982787142,-0.2836836930200082,-0.5182247759424727,-0.20025836276636388,-0.40865685885307185,-0.6661290514040689,-0.40296726573423197,-0.33654798673233977,-0.2759205813161733,-0.3958104124146603,-0.40660646551756213,-0.3849783326390603,-0.1756266980322289,-0.35110761362341336,-0.2513531155214497,-0.2646981454666338,0.1314648312871609,-0.49547748997129465,0.031094570108713974,0.1454297131894329,-0.10271371736064763,2
10.25,13.3,4.775,4.3,14.275,25.975,6.2,9.0,658.0,745.0,312.0,277.0,987.0,1788.0,380.0,606.0,18.0,16.0,15.0,19.0,23.0,21.0,19.0,13.0,-0.5418728697909588,-0.2597627811220521,-0.13585340183056513,-0.12535428875906598,-0.11140448767571799,-0.6036441912230431,0.02834523128096022,-0.2618274227568726,-0.4537059971575458,-0.4765953016082029,-0.1651262822122442,-0.25248918706108764,-0.6097264038928106,-0.4778162776915821,-0.5496917628577891,-0.30878891274277603,-0.5490913736137909,-0.2490382702671816,-0.41768756115175604,-0.13405168499419307,-0.7222159300418804,-0.4064610832899052,-0.4064031926271094,-0.36280707114894867,-0.31182943531804713,0.01212276344433159,-0.10411089511855035,0.015798137147996282,-0.4983642422604506,-0.35108469457414954,-0.3595655603419696,-0.3831029869359902,2
