0,1,2,3,4,5,6,7,8,9,10,11,12,13,14,15,16,17,18,19,20,21,22,23,24,25,26,27,28,29,30,31,32,33,34,35,36,37,38,39,40,41,42,43,44,45,46,47,48,49,50,51,52,53,54,55,Gesture
11.925,4.775,2.775,5.975,10.475,23.75,8.025,12.625,800.0,317.0,173.0,387.0,719.0,1632.0,553.0,771.0,20.0,16.0,13.0,19.0,18.0,22.0,21.0,13.0,-0.5895131383992892,-0.13340193513153029,0.12504056125240887,0.15393092568383512,-0.35857194090151867,-0.11027798004259737,-0.16770860739447307,-0.05402865891451083,-0.46611602496370397,-0.3957182850126475,-0.5723035677586906,-0.31987716231768387,-0.4290936299779538,-0.32724264590094104,-0.1941524549982745,-0.3509320241530967,-0.5785161876785406,-0.31150650032528654,-0.18193376503630573,-0.26142836884470017,-0.41214891041042495,0.08165535111619278,-0.34883546952603406,-0.4988880799717467,-0.45002051486816014,-0.2257423133673316,-0.16653710670663913,-0.3828074636975734,-0.2631983322131317,-0.2562531894626444,-0.28062153517715543,-0.3640029611065086,3
8.15,2.9,2.85,4.35,16.125,32.575,6.65,13.0,528.0,163.0,153.0,274.0,1115.0,2257.0,468.0,847.0,21.0,14.0,14.0,16.0,21.0,19.0,21.0,20.0,-0.4592537622732022,-0.10259375447735337,0.007157490512683523,-0.11070896355914682,-0.23883326771416377,-0.15989345360697693,-0.2582395805301574,-0.1418231873815866,-0.01606320379859684,-0.4469393897030963,-0.05416782322463646,-0.18864065272666491,-0.5485081388404704,-0.4759909075151111,-0.34570993332679123,-0.29570411376702277,-0.5832359952168227,-0.25735506655449986,-0.3330232352083585,-0.6138101019588522,-0.580405666097009,-0.29913285376963644,-0.42611591097649637,-0.5900681114255727,-0.6262179927758192,-0.48364543429583373,-0.38752691446728077,-0.24368559466558015,-0.5355053564288452,-0.22281095675002927,-0.47345617470520834,-0.3199350649425396,3
4.825,2.15,2.6,3.4,11.4,25.375,4.8,8.55,351.0,123.0,145.0,185.0,623.0,1379.0,284.0,519.0,17.0,11.0,11.0,17.0,13.0,17.0,13.0,14.0,-0.3668006512875751,-0.018928781088007825,-0.11219242904309404,-0.17624062879278224,-0.125496333919349,-0.07000761923132423,-0.17744215531844937,0.066096140446187,-0.27403899683713145,-0.39352725823846524,-0.319655847602668,-0.1337028358616519,-0.07613762990193192,-0.3371945679857231,-0.24886164644766456,-0.01627222397182507,-0.1810186748854025,-0.2737952961327621,-0.43174086890529767,-0.29533238037432463,-0.07437530460229652,-0.20759212138399774,-0.23302738875166543,-0.30062148385491416,-0.2744269997136784,-0.13533742160051832,-0.049442018022946725,-0.12121773630109081,-0.29973692562041376,-0.4072233791396421,-0.3703896773205317,-0.10414218507780428,3
8.475,2.525,2.825,2.925,10.725,24.625,5.45,8.2,509.0,142.0,165.0,153.0,655.0,1375.0,336.0,421.0,15.0,15.0,15.0,13.0,17.0,15.0,21.0,12.0,-0.26577313495071814,-0.030099290287404268,-0.12588811145895953,-0.12532428691652397,-0.3228068472306519,-0.4414929115854345,-0.2249752387202628,-0.275965290108328,-0.33303429192012346,-0.3758516527792262,-0.06597517702247428,-0.09075255886337087,0.006121385339004246,-0.27002273300415086,-0.09238770900183689,-0.12699310015891235,-0.38892136147044665,-0.20326568207056292,-0.21887541346152586,-0.13357329295945256,-0.275782032137715,-0.06865064305104666,-0.12349856748327497,-0.16608168413663285,-0.29153533008714794,-0.2566321415985449,0.05152677846738061,-0.1783241124989625,0.14264183987781404,-0.4645097201886583,0.11143025214415576,-0.3514495110145116,3
10.575,2.3,3.0,3.95,14.925,22.85,5.75,8.9,764.0,133.0,168.0,215.0,939.0,1390.0,360.0,536.0,18.0,17.0,17.0,14.0,18.0,16.0,17.0,17.0,-0.6478036275605769,-0.04524913194443846,0.40766678607972384,0.3075067524106822,-0.34525416132007464,-0.48771412844025824,-0.35409334145563465,-0.4373719812972154,-0.1920417953907965,-0.5328053578380935,-0.12594811210352935,-0.34523895975273616,-0.3078739789970364,-0.39565252246970933,-0.3573498760394583,-0.1712606786390242,-0.7227960237484783,-0.4998514691712698,-0.37938285577540415,-0.301077892952391,-0.45980648373914657,-0.510437598258751,-0.2504037933327303,-0.27531643879669443,-0.40833757391869957,-0.38763082460852544,-0.12215192428084697,-0.2770223179573824,-0.19639962816393913,-0.23359100230380161,-0.01422513059196788,-0.420269078385452,3
10.25,2.25,2.175,2.9,12.95,27.825,6.45,8.45,637.0,132.0,122.0,154.0,783.0,1883.0,440.0,517.0,18.0,14.0,9.0,12.0,14.0,18.0,21.0,15.0,-0.5732024082676856,-0.3134666826912418,-0.24978779572599283,-0.08516351391644524,-0.2729315807557153,-0.15903795058509265,-0.10466806729249555,-0.41150152193425277,-0.11201243048064369,-0.2684748731898718,-0.10169168060725506,-0.19181620145625097,-0.26671504297902865,-0.36870651457769466,-0.3795822145673156,-0.12765988306703605,-0.3784751229205521,-0.1851764788595912,-0.05145551020287585,-0.21639936403039917,-0.30509834837847905,-0.13737800419540133,0.02473885127142522,-0.34224867177062146,-0.6125266350516633,-0.25633082855201494,-0.2202785083675599,-0.24561216305261385,-0.1605794085842402,-0.5875777169422541,0.024792299259685253,-0.38388540143995026,3
7.9,2.75,2.7,3.675,12.4,33.0,6.225,8.725,542.0,166.0,146.0,204.0,721.0,2050.0,414.0,606.0,17.0,16.0,12.0,12.0,14.0,15.0,15.0,19.0,-0.46855366087605027,-0.21311239266547927,-0.006117085387008959,-0.1989900422719639,-0.22278127182749313,-0.09241424656953869,-0.04650900866626886,-0.32276277293149136,-0.2828027674000605,-0.5314939992774157,-0.34132816122114523,-0.38315243947309774,-0.29735149589469123,-0.500468313480386,-0.3387336334527775,-0.31376324089566676,-0.1094956297174186,-0.029578405582638613,-0.1652029654490772,-0.05658887428245909,-0.29728026705841987,-0.09227073429536944,-0.11446650220256571,-0.32487230016978785,-0.4699826065786104,-0.20397839041593935,-0.10826830893298668,-0.2704974072514006,-0.514850208663528,-0.3167744743406835,0.11815113974712253,-0.022116235369523257,3
7.35,2.25,2.275,3.3,12.825,26.7,5.25,9.95,478.0,137.0,133.0,190.0,837.0,1736.0,357.0,700.0,15.0,11.0,15.0,14.0,18.0,15.0,17.0,19.0,-0.31854738585483316,-0.0005770471958401297,-0.365167518364887,-0.3200991768035346,-0.19403853134400448,-0.44540294468458697,-0.10598927056713568,-0.6054192575469295,-0.23362752358778266,-0.5413602808558469,-0.10231378361060454,-0.38099022690319007,-0.3161519255616013,-0.4019895047452592,-0.2266796685088181,-0.33116359465698925,-0.4321609862458898,-0.47466565958180995,-0.2710018079646971,-0.46485349960081,-0.5440090484532306,-0.23194328093793062,-0.1159613918500795,-0.19130838609346443,-0.796842372273929,-0.6883251161897842,-0.42235312634228295,-0.4041563504416773,-0.46962540146138654,-0.1891865365742786,-0.07497624563008766,-0.027143543816866476,3
5.975,2.175,2.375,3.575,17.075,30.525,6.35,11.75,369.0,112.0,135.0,209.0,1066.0,1979.0,444.0,749.0,18.0,12.0,13.0,12.0,15.0,17.0,18.0,16.0,-0.19552476868922286,-0.11036104680837529,-0.006843116338402021,-0.035720037195141725,-0.3348022039377279,-0.02997206199040115,-0.09270620931089828,-0.1342736200898517,-0.2844771231753502,-0.29973299191832176,0.18490309541400166,-0.08514764593123644,-0.26359299917037426,-0.00984045577082247,-0.07425513062841647,-0.13165549155862175,-0.2997785313404313,-0.1985813095947924,-0.18803730310401728,-0.17004775180818707,-0.2065250376421805,0.05040423874412199,-0.49309581617450976,-0.10825465800807231,-0.7579862190007949,-0.3997709665222618,-0.49609957138813743,-0.3650136063458512,-0.43479330679959277,-0.2085533414982235,-0.4319533080700432,-0.24018501406606768,3
7.675,2.275,2.625,2.8,15.675,28.375,5.725,12.3,516.0,134.0,144.0,171.0,1036.0,1783.0,353.0,790.0,21.0,14.0,14.0,20.0,17.0,19.0,16.0,20.0,-0.5326947437441392,0.09099051994153372,0.1406877617304386,-0.057668826711093836,-0.3452598034719836,-0.22706274537060853,-0.0010903277394689952,-0.1391688614267033,-0.3268654686083708,-0.40249863391837115,-0.3687986374822926,-0.29478635062938346,-0.30850067194541564,0.1828027655030215,-0.08267230399482366,-0.19438027910869504,-0.5000909387965845,-0.4231987286713035,-0.32009489106212957,-0.17575768819521545,-0.3183359291227917,0.05240848127605182,-0.07274438847983426,-0.243624860183875,-0.5122140028133764,-0.33796971416099403,-0.5152710380888026,-0.4618108189514653,-0.5614919615503068,-0.2951960003401813,-0.5415765418177301,-0.5232595751274686,3
7.75,2.6,2.875,3.9,12.55,30.525,7.35,7.425,546.0,162.0,192.0,248.0,749.0,2035.0,500.0,455.0,20.0,16.0,12.0,14.0,18.0,22.0,20.0,12.0,-0.5423613341378549,-0.19500628305697457,-0.1812707444126994,-0.09726820556374705,-0.6327569055565331,-0.3211181368705586,0.09227563820676168,-0.0414908923781148,-0.7041171926515306,-0.4602179434033524,-0.10188296683507124,-0.055878662097373626,-0.6666392694489564,-0.43065703817249457,-0.23987720104997687,-0.2017378327302994,-0.23059158482381253,-0.04964122027253994,-0.24096199797148804,-0.18601603452616905,-0.2620908511945423,0.027343665099000027,-0.09347981707676256,-0.41934805464402775,-0.8808872033597616,-0.5752626476776046,-0.3171574794797078,-0.3127495078546245,-0.18543350897151592,0.11844239391912062,-0.04290921554265078,-0.0784098490096106,3
6.925,2.175,2.9,3.575,15.35,24.225,5.5,8.3,455.0,131.0,176.0,233.0,984.0,1524.0,359.0,489.0,13.0,14.0,18.0,14.0,17.0,17.0,18.0,17.0,-0.5666249102659685,-0.34051009818751565,-0.5211686339582282,-0.4249767405501648,-0.36969430111953244,-0.14373045155689054,0.16159312771401235,-0.032943378364643824,-0.44086197885613837,0.005688341888351248,0.28197434322815645,0.18826490541078855,-0.6387941642307544,-0.322469828550573,-0.07188533360498772,-0.05379680498303163,-0.6170124468250063,-0.6030184879994052,-0.3772181119227671,-0.20928356782485186,-0.36091220399284146,-0.35750410215658435,-0.034466619757974416,-0.152558419523045,-0.7670270926730911,-0.6121493365970856,-0.2922611141580085,-0.16847362902771998,-0.3319192261993997,-0.28412160635736733,0.018485369966583932,-0.1981569116436442,3
4.975,2.05,2.6,2.975,18.6,32.25,5.775,10.85,322.0,115.0,132.0,192.0,1208.0,2129.0,380.0,646.0,17.0,12.0,12.0,16.0,18.0,22.0,17.0,19.0,-0.24053114828629138,0.12466555266784483,-0.07569960481536837,-0.20334014208859985,-0.34745075843696244,-0.11027645271985147,-0.2387470997538511,-0.21338028606916634,-0.13443014470266634,-0.23443843057100813,-0.16261112050203277,-0.11433591374845696,-0.33272666685220886,0.06803401714955695,-0.16119134476977331,-0.3548140491445172,-0.6950791305915491,-0.6123756458290612,-0.39775754057435714,-0.20612783216246253,-0.6481409067472933,-0.3567345430373957,-0.37721519008501964,-0.3345601327238176,-0.7067108617482282,-0.4959619145608759,-0.7519947658843753,-0.2543587004322618,-0.4181161843716313,-0.504373369916118,-0.2218884019031552,-0.22899970031561576,3
5.325,1.875,2.25,2.6,24.125,38.65,6.625,8.85,318.0,123.0,140.0,169.0,1746.0,2788.0,443.0,555.0,14.0,13.0,12.0,16.0,22.0,22.0,20.0,16.0,-0.16467843091166998,-0.19157509298901904,-0.3456346745595917,0.011327115633447751,-0.2963562673839426,-0.23233456602924954,-0.14901336783702704,-0.17665550545256392,-0.23974896594271558,-0.1880006255784899,-0.05629444465892403,-0.31440483810523756,-0.3349878878795441,-0.156871308019539,-0.18043910635003413,-0.43887167973635355,-0.7990119461263313,-0.6233959094058035,-0.4255496555860748,-0.4430803897880922,-0.8966298696591165,-0.612411071314683,-0.4907485280245161,-0.3803577382198554,-0.802825395309355,-0.4245668048721356,-0.012572660089066686,-0.0701402741197982,-0.2612367545462482,-0.13895029555933466,-0.154043217828932,-0.10349508879338497,3
6.05,2.625,2.55,3.175,14.05,23.45,4.625,8.95,416.0,146.0,141.0,185.0,977.0,1546.0,299.0,580.0,20.0,13.0,10.0,14.0,18.0,18.0,15.0,18.0,-0.44933693359360544,-0.15380526383490348,-0.12954901657749734,-0.1948530122285364,-0.04982701776400772,-0.11951880104383258,-0.1565146674875164,-0.1435177284156837,0.08988811950509959,-0.20340453961244878,0.0621725749504701,-0.19396525380181334,0.050558288440366715,-0.3454532547454151,0.1746908022133722,-0.2518646164462278,-0.5168432964814592,-0.2080726529850891,0.10963589754421323,0.18021682401325118,-0.5591363141325693,-0.46687766049290663,-0.407641186377577,-0.031675653452567745,-0.4081217554223363,-0.24218415815420782,-0.13351323966422202,-0.1871587691510706,-0.4759978740039314,-0.03660603719447182,-0.14894215962394167,-0.15740139485479004,3
4.975,2.625,3.2,4.2,14.6,29.025,5.725,9.875,340.0,149.0,161.0,237.0,961.0,1825.0,331.0,659.0,16.0,11.0,13.0,13.0,19.0,16.0,11.0,20.0,-0.2639977553960087,-0.378898814989951,0.023462993558633197,-0.3339623190133244,-0.21853361851660358,-0.023828612259796544,-0.35445617981994937,-0.24710069140760244,-0.1491526085122668,-0.3950987583124383,-0.3867377920834622,-0.13854743827768692,-0.2939760672180357,-0.14175355495332803,-0.35405261022909257,-0.30519030266041663,-0.2987294797849764,-0.22780014934246273,0.05700410150305156,-0.2927264795764714,-0.4577313284058933,-0.19049793562965298,-0.24825906289573008,-0.19806640447716806,-0.5245831486876001,-0.6512010464130694,-0.5223209041523903,-0.3920475595002505,-0.5124915740561797,-0.423573580141477,-0.32680833221888145,-0.1266235720916089,3
5.825,2.975,3.775,4.425,17.325,35.35,7.7,9.825,357.0,184.0,221.0,255.0,1134.0,2160.0,530.0,598.0,16.0,17.0,17.0,17.0,20.0,15.0,16.0,12.0,-0.1987606369135067,-0.22807916156024502,-0.16478954416828798,0.15558591300984664,-0.23301551421199582,-0.028976148441429837,-0.36950499077618937,0.11568011659809707,-0.36212327479718925,-0.22167012718547158,-0.4473331484027666,-0.043947830416987875,-0.2529352686577565,-0.224918918000084,-0.6216338731140382,-0.059157613895571164,-0.33980538489925743,0.015887701092966618,-0.17675327037240743,-0.3785643709529128,-0.28086872824435755,-0.07000518010000015,-0.14030920010143288,0.08979415417303972,-0.8605723289575966,-0.6957496463494467,-0.7153376306954081,-0.28615681176726293,-0.40639468391367856,-0.23548377651349808,-0.3794275172704149,-0.18065557090573725,3
5.55,2.875,3.2,4.025,14.675,33.05,6.725,8.875,346.0,168.0,177.0,243.0,913.0,2153.0,407.0,559.0,17.0,14.0,16.0,18.0,12.0,18.0,15.0,18.0,-0.2618993610839595,-0.3273737036409157,-0.10424825337698192,0.010011358362800229,-0.13554668878111079,-0.17020471782955912,-0.4059086561002855,0.09808558737824777,-0.24414105201029548,-0.2897397549492563,-0.39858169068994315,-0.10899018094297844,-0.331121665153977,-0.35591652615957275,-0.38827588871793794,-0.25056440615600417,-0.2284092045420482,-0.13887000716612083,-0.04912679282939238,-0.20954690641510498,-0.27977150248067884,-0.12205151405430875,-0.16001646303384823,-0.08369977984886161,-0.2538200952894593,-0.06727056161308431,-0.2612837578678166,0.05164221298490129,-0.4163341309678171,-0.41280771860105037,-0.3011592614155961,-0.08916197277601429,3
6.875,2.35,2.825,3.375,14.9,30.25,5.025,10.125,451.0,145.0,173.0,199.0,793.0,1660.0,271.0,607.0,21.0,18.0,18.0,16.0,15.0,15.0,16.0,16.0,-0.460100532412561,-0.2455097879418984,-0.40314422384525256,-0.273546563714907,-0.3120377581185853,-0.27029752567058973,-0.10673464177012418,-0.22967108315222462,-0.27884265635587424,-0.20676555133139396,-0.07712375812609816,-0.23387753054675361,-0.24218517012260926,-0.37790643725228124,-0.2096980451701254,-0.4132713459004479,-0.06924335154941434,-0.09041484844190384,-0.14737150621516043,0.10791553764017682,-0.00048728515356716615,-0.38375649717088617,-0.0767528298316471,-0.1024125944645209,-0.16184194305693167,-0.12017611720299408,-0.40890985092611337,-0.10736027453608558,-0.39622962808175194,-0.43437792682681414,-0.33959114303073235,-0.4407449988178808,3
5.65,2.2,2.775,3.25,13.075,29.4,5.4,8.55,312.0,140.0,169.0,196.0,830.0,1734.0,343.0,433.0,11.0,15.0,17.0,13.0,19.0,16.0,19.0,12.0,-0.3398636418404768,-0.19807566004426222,-0.3889352423841955,-0.3398358638127617,-0.30230088994243653,-0.08360078962255299,-0.20698584674397416,0.13900693554111346,-0.3937779596096375,-0.015253343190676536,-0.08896206522005962,0.15199031595987256,-0.09356127721377351,-0.2314489744770385,-0.010941625822549546,-0.008495035325347948,-0.11974361016717155,-0.1326039859029058,-0.08152789922248539,0.05240666532150003,-0.12460082809431487,0.00427476665331111,0.04135860994083389,0.22109094979244343,-0.2989972672512885,-0.2345884347517919,-0.2716925604523392,0.09446225320895914,0.04923479732760778,-0.5003657400873723,-0.1845710983624021,-0.5393730960189311,3
7.375,2.5,3.15,3.6,16.375,29.425,7.375,8.75,507.0,143.0,158.0,212.0,1091.0,1863.0,430.0,575.0,20.0,12.0,12.0,10.0,20.0,15.0,14.0,17.0,-0.6584909631020686,-0.3093018023073405,-0.3245541534982513,-0.347485117036146,-0.20645062031643713,-0.3004645646005782,-0.2485593137100716,-0.3543035640764857,-0.11351962072363103,-0.20558658670502733,-0.30942742307564275,-0.2440202751035646,-0.2754931646559861,-0.2102560253191662,-0.2956961384170811,-0.1954567312043702,-0.42252414061690324,0.16820755671054974,-0.06354722725106345,-0.0653990664581974,-0.5279667294769196,-0.16602397210396583,-0.16484047737320046,-0.020844352620146313,-0.2553717407729605,-0.2776435774084685,-0.3511271350177769,-0.22358476246378162,-0.3660092577745769,-0.2794060677005956,-0.3204516042104836,-0.45988006844434787,3
5.775,2.75,3.15,4.025,15.4,26.975,5.55,7.7,351.0,132.0,135.0,223.0,942.0,1533.0,304.0,500.0,12.0,10.0,8.0,10.0,15.0,16.0,15.0,19.0,-0.5625518565505829,-0.2456365542497397,-0.11458130775613724,-0.12888436942200626,0.05847033504425451,-0.034552669357385164,0.10498492977662172,-0.36075256281956014,0.13148600560492885,-0.09749957626158601,-0.061148640074153396,-0.3852743844915761,-0.07276558872478454,-0.01791171790995487,-0.12375531000279133,-0.31051123100756794,-0.4262814821360163,-0.11224067895859283,-0.5162112205502954,-0.34263792570384277,-0.1509742631899087,-0.19742170485417915,-0.4378229916728285,-0.23379459835484226,-0.1747666740250307,-0.1054600722924769,-0.13311472007967573,-0.2607163971806349,-0.3346455786496006,-0.0935626423251977,0.039470442287324325,-0.13326852122234262,3
6.3,3.2,3.325,4.025,17.275,30.175,7.15,9.75,403.0,174.0,184.0,225.0,1161.0,1913.0,417.0,614.0,16.0,16.0,14.0,18.0,18.0,19.0,15.0,15.0,-0.4876543259676503,-0.252332816465555,-0.29534473610171874,-0.24662789391732814,-0.23676591023327534,-0.17589281827376038,-0.051661637991812816,-0.23750622276391095,-0.41883887222833255,-0.34962360273881266,-0.4271114474384506,-0.15614621056919104,-0.30781599567554124,-0.10308556318841437,-0.20121758965764436,0.050127540778790704,-0.7315503362878176,-0.3616094638953619,-0.38112304781582607,-0.4111535929532925,-0.4551383743540312,-0.16595257132662483,-0.0879826507909236,-0.20120936352945792,-0.3275657143846498,-0.3854556739479937,-0.26401575423464835,-0.20780572994961097,-0.5417169933922229,-0.3280362541376139,-0.3131585778331639,-0.06309672582570694,3
6.225,2.6,2.65,2.9,20.05,31.425,6.8,9.25,429.0,161.0,155.0,173.0,1415.0,2077.0,414.0,594.0,17.0,13.0,13.0,11.0,19.0,15.0,17.0,13.0,-0.4002250237077294,0.10369266063698768,-0.11741571204332622,-0.18892303193159715,-0.5389819352479663,-0.3122316268979673,-0.5137398865278168,-0.2760529573303819,-0.31049789619667995,-0.27305282930188973,-0.48501048876426217,-0.006595091353900001,-0.3000852123432659,-0.17617340271370374,-0.3181446712207777,0.08541793878370284,-1.0388475026734219,-0.8385413761351053,-0.7251207063656859,-0.4577264822771837,-0.4977917733519073,-0.15933967088698137,-0.23401141634408124,-0.31158780371444256,-0.500382026043614,-0.4001318037018672,-0.47753546152456733,-0.2536459069241223,-0.5053875205073557,-0.31566418347207953,-0.5401399345018107,-0.3226402717300527,3
6.275,1.8,2.3,2.9,17.225,24.25,4.125,6.95,419.0,111.0,128.0,169.0,1228.0,1590.0,246.0,450.0,20.0,16.0,11.0,16.0,23.0,19.0,16.0,16.0,-0.5904607698707833,-0.19239715849549874,-0.28855284317980334,-0.2517591097065667,-0.30687215865125306,-0.1860091939734009,-0.3606018893941355,0.004543252024840615,-0.09787802008338353,-0.3023854000395852,-0.2678255253795491,-0.08619261866801133,-0.1986106624908514,-0.3014411539893034,-0.21153449338322525,-0.22664073777520077,-0.7351166399107524,-0.5871405517646415,-0.38201499977150266,-0.23182445262144263,-0.3599666240698927,-0.13538811954437138,-0.11314917336846884,-0.07047258989067028,-0.3394102963482365,-0.27556470847896875,-0.29491619233825217,-0.4264584737040274,-0.21553141867866965,0.047829360631066326,-0.1691645613464856,-0.0291010803425629,3
6.7,2.175,2.325,2.85,15.725,30.4,5.575,7.8,453.0,118.0,136.0,169.0,1076.0,2015.0,383.0,462.0,17.0,15.0,16.0,13.0,16.0,20.0,21.0,13.0,-0.5031218192043401,-0.20297014413444983,-0.17814692265948262,-0.06783879768589893,-0.31306721164660245,-0.44815035263078734,-0.11259989527785207,-0.07984624847820387,-0.24820625432117474,-0.3603977611440691,-0.22382030758749405,-0.2307528252942224,-0.2482673028428082,-0.16771423229523136,-0.1448143675845238,-0.3917020906770307,-0.5167502976241686,-0.2192207196237441,-0.08940360294358816,-0.42894455599882125,-0.3073680953354511,-0.22749549083260198,-0.10255633174770051,-0.4871422831105008,-0.555731143861159,-0.33929017760183744,-0.2704342035280108,-0.3095487232637642,-0.13925709711757672,-0.2169351131635667,-0.11625838741875345,-0.2558973607774018,3
5.675,2.125,2.525,2.95,13.4,29.125,6.5,7.35,378.0,123.0,128.0,156.0,836.0,1945.0,433.0,524.0,18.0,14.0,14.0,16.0,14.0,22.0,16.0,22.0,-0.41788562646762795,-0.078556084062105,0.11193962795076602,-0.03521585727382513,-0.2261455388915298,-0.4474003398580737,-0.2506735948082267,-0.09485822141641656,0.10405801296284062,-0.3155821174726071,-0.10983466612443482,-0.24082519578482908,-0.17340944426148122,-0.016476038888423014,-0.22242115169993348,-0.335854521172446,-0.2804310137837248,-0.21307498974456027,-0.23430411132343568,0.06199342510255365,-0.3557203433641544,-0.05224824927414533,0.05935270728386926,-0.06936248584687567,-0.5090292274885283,-0.3866386504580069,-0.1562577999397266,-0.2831481139968642,-0.3707811886759556,-0.12524740803365045,0.11184195576175456,0.07154673492711355,3
5.75,2.275,2.65,3.225,14.8,26.775,7.075,8.725,392.0,127.0,157.0,214.0,968.0,1541.0,431.0,572.0,16.0,13.0,11.0,19.0,19.0,17.0,17.0,17.0,-0.39764907849295406,-0.08091295767152623,-0.09871714966886994,-0.059101909882615995,-0.27939315832471295,-0.253589553724533,-0.23562633951456316,-0.3680137602743091,-0.3247353569668309,-0.40226058871432313,-0.3065115583681308,-0.5849956608408522,-0.48398312184713016,-0.26922115852708084,-0.03980218240172852,-0.2949986594420275,-0.1446367279182714,-0.37953067840601595,0.12248814845553643,-0.3414563937420687,-0.23194007491251467,-0.21181408413825836,-0.07175920320580592,0.0005720290883704419,-0.4989828663447406,-0.2855696660404201,-0.5735062022972799,-0.32247653313017627,-0.46178705503084344,-0.4236027285050247,-0.28990350495843525,-0.03435831896858147,3
4.8,2.025,2.125,3.575,18.1,35.4,6.1,7.05,329.0,108.0,131.0,235.0,1135.0,2033.0,406.0,430.0,18.0,16.0,14.0,15.0,17.0,15.0,13.0,15.0,-0.484080368113607,-0.2977869519204087,-0.173215443210439,-0.06289570705274093,-0.3660161696847228,-0.5672508071369943,-0.3318601802707432,-0.201047608460388,-0.3834086798674687,-0.3565854915930558,-0.15219819383717925,-0.39607704613575634,-0.4540797294334254,-0.4022078678372651,-0.2162426889345164,-0.36007433353333235,-0.33401454494782806,-0.234075593492554,-0.17378054255321454,-0.3294764663556694,-0.3476871843220002,-0.40108706369398067,-0.3250589304007879,-0.3139490398213637,-0.4643177451795052,-0.3294146591940415,-0.39398809473454915,-0.2982319722767863,-0.16366779219056135,0.007798346002818766,-0.26658485116777486,-0.1855191319286204,3
5.9,2.575,2.3,3.125,13.8,25.475,5.7,8.525,427.0,151.0,145.0,196.0,981.0,1561.0,348.0,621.0,21.0,14.0,14.0,13.0,21.0,17.0,17.0,22.0,-0.5060401421671415,-0.16244185424483915,-0.33515902310447676,-0.32476940315995895,-0.21889529500908683,-0.015581037984949489,0.024746504919555993,-0.17444415096081808,-0.3955836724923151,-0.12660005748209535,-0.03993108256420504,0.03611142923310581,-0.38947336418844775,-0.2915755819653741,-0.22606707944359541,-0.15650695816186427,-0.46375908088474044,-0.18518748161993448,-0.1607414555518902,-0.29120956671609144,-0.37469083657143554,-0.20946562144821287,-0.3995046189193204,-0.34974700552473753,-0.5352236358142551,-0.5303344801732045,-0.47140441460527543,-0.4387616290466764,-0.6213572581955082,0.09812193718233883,0.26452896979683915,-0.1246907612153066,3
7.35,3.075,2.475,3.15,10.7,19.775,5.7,10.85,411.0,172.0,128.0,189.0,728.0,1176.0,347.0,691.0,12.0,14.0,11.0,15.0,15.0,17.0,16.0,17.0,-0.17912339702295266,-0.10640196893240188,-0.13757251760476105,-0.10663131086486162,-0.14506134315384767,-0.1366577963457584,-0.22133807835716535,-0.12965692260538117,0.05213297496325641,-0.23917321663864377,-0.20610505707911625,-0.11455003088441054,-0.23842993729658257,-0.22644174562529754,-0.11895644297292002,-0.16789565663171727,-0.44517071606245706,-0.0875094089697651,-0.11271093070807317,-0.2010519213396066,-0.2946420896763139,-0.3954668747218659,-0.11501886586843547,-0.40694419509953106,-0.3359016137886621,-0.4807658180579864,-0.29335813383721754,-0.3860637372480763,-0.23684188027621705,-0.19974971665239055,-0.1838480831509701,-0.1620340331399888,3
7.8,2.525,2.65,2.55,15.15,29.8,5.375,8.3,503.0,111.0,120.0,131.0,888.0,1649.0,276.0,474.0,21.0,10.0,15.0,12.0,18.0,16.0,15.0,18.0,-0.5985636202452745,-0.3469040434394036,-0.3858913885292712,-0.3048080734150576,0.12130439987029332,-0.25271006956775494,-0.2870138388283263,-0.05962140274811279,0.2577810871567703,-0.30173114978248095,-0.20732923261419633,0.11179107608885784,0.17069306514109017,-0.3136934873196774,-0.20194489164024862,0.19572798969917385,-0.4911536742837247,-0.42310606849689036,-0.44481669973030735,-0.4255203561021746,-0.305502375816746,-0.21520696652175217,-0.24086396643890706,-0.4493613943858227,0.03931660447997661,-0.2998652679213035,-0.16881318085791075,-0.2605762318971521,-0.2668283756229896,-0.31126405294848325,-0.16987510089809527,-0.0318537225565685,3
5.85,2.25,2.725,2.7,13.475,26.225,5.825,8.75,384.0,115.0,127.0,151.0,786.0,1621.0,365.0,551.0,20.0,13.0,13.0,15.0,21.0,20.0,20.0,17.0,-0.45958367002774336,-0.16363790825219535,0.06066141102978025,-0.1373111664779261,-0.10383402789127506,-0.16851391801030438,-0.07127586755355575,-0.0903070539963858,-0.09478376469570307,-0.27265043238956677,-0.22661492280134038,0.005235094493112808,-0.04222285816597389,-0.4266059378370036,-0.17093569412317616,-0.07130232625974527,-0.29612529067533305,-0.19250646016430428,-0.3352122478520938,-0.20707984589443168,-0.35164121935606235,-0.10927724926884655,-0.2712127770002174,-0.19172631897739845,-0.2703474791154543,-0.33626511924254693,-0.1758582849418935,-0.37132182764509464,-0.3777536529690445,-0.37740513095096134,-0.2329377134161085,-0.2322898752375869,3
5.425,2.15,2.275,2.725,12.575,23.15,5.475,8.6,359.0,115.0,103.0,180.0,725.0,1537.0,326.0,579.0,20.0,13.0,9.0,18.0,18.0,19.0,15.0,23.0,-0.4133708562132429,-0.09291212656500648,0.13700055234296235,0.0833756311500491,-0.07395604350962201,-0.16362532962349988,-0.333419727497572,-0.03097519148496577,0.10681182749966887,-0.20691237043886251,-0.3770832845001185,0.06240244715443027,-0.4634018833267211,-0.21479558404964733,-0.00924154718225717,-0.21872541570623608,-0.2644178155489898,-0.23997922649637285,-0.19067896191603403,-0.36654430233962043,-0.4118071288299367,-0.1656245489177274,-0.209712049560901,-0.16220346909139444,-0.5308076840186281,-0.4197009299323327,-0.3504058936969632,-0.17049958770352233,-0.20956410450802251,0.21685584552893236,-0.24365780076448182,-0.20964340178367688,3
7.425,2.325,2.3,2.5,16.9,29.45,5.9,7.825,498.0,149.0,136.0,175.0,1123.0,1929.0,385.0,484.0,16.0,15.0,14.0,16.0,19.0,19.0,19.0,15.0,-0.5352360167991181,-0.401813864355157,-0.24830396994814502,-0.25338345348172137,-0.3198161591311002,-0.1121849212833105,-0.17528241235774372,-0.26662018667205606,-0.25874204533117384,-0.1253804294556713,0.04905973607814427,-0.22563903766203766,-0.2537721498329959,0.033140512088514255,-0.053658292842819665,-0.277839418254046,-0.6459588299410386,-0.6108348686856798,-0.3635218604061704,-0.24826515509649424,-0.38989313871062775,-0.32415071342384993,-0.04882330128994195,-0.2701155237969613,-0.6288471219856413,-0.5827707501546135,-0.2747046191045842,-0.2723188925080207,-0.27766103305439677,-0.2535224698133023,0.12298281603093504,-0.07035772280721184,3
7.225,2.1,2.525,2.75,13.7,23.5,5.325,9.9,467.0,129.0,155.0,175.0,851.0,1540.0,363.0,681.0,16.0,16.0,17.0,19.0,16.0,20.0,14.0,21.0,-0.3433594151410277,-0.21447604766229,0.20378790959496748,0.003803501751000004,-0.13506570277941293,-0.23187981674091748,-0.20164983787919694,-0.22308575309438133,-0.30327847497611504,-0.19362757501299535,-0.05952007684258244,-0.12327789645193553,-0.3074356229644268,-0.009031468053648286,-0.2166143359708482,-0.35299510617784075,-0.3534661657435476,-0.3644223255895838,-0.09721169610817645,-0.34322486593433577,-0.30994686213752526,-0.11326254469358063,0.3521162029219289,-0.11650357085421452,-0.580099607104718,-0.4846123232709286,-0.16457673816609847,-0.05463818192445144,-0.48324712724207075,-0.27808660360783166,-0.05063726229076195,-0.066091874470489,3
5.6,1.65,1.925,2.975,18.125,31.075,5.1,9.875,361.0,95.0,97.0,203.0,1182.0,2086.0,339.0,597.0,18.0,8.0,8.0,15.0,15.0,19.0,20.0,17.0,-0.16580961077659112,-0.014729114591232887,-0.06650649249487756,-0.14907333195132233,-0.09517644404750145,0.0278379647635018,-0.10621804331419478,-0.14954139547992298,-0.06125773795847595,-0.19653523204909482,-0.26922748931893836,-0.07638493678758806,-0.599749727555858,-0.4592386997877033,-0.2720039597386959,-0.17147347019980785,-0.3682814945650331,-0.2272000603429993,-0.2780107237586059,-0.2724333027293971,-0.5783837280206068,-0.35072446324657974,-0.21058199010564013,-0.23451187013877686,-0.6479488365947825,-0.32016345980374994,0.0098683560580103,0.10044177179040346,-0.14551245014829847,-0.029386322843092574,-0.2746669507058982,-0.03272229531235579,3
6.9,2.45,3.35,3.525,17.25,22.375,6.5,9.525,397.0,138.0,175.0,185.0,1141.0,1224.0,394.0,506.0,13.0,13.0,13.0,8.0,20.0,16.0,15.0,17.0,-0.2038957305088555,-0.29787723022832513,-0.2614045260119358,-0.13768631599820463,-0.03984307100446907,0.01540028297112945,-0.1254035241250876,-0.4777448702547509,-0.13384132544169813,-0.05195645478917897,-0.17571217570907624,-0.4927663999436276,0.06044017549829365,-0.14419288698914032,0.03698862861716996,-0.6923167481004422,-0.4588343251673692,-0.31468643570878124,0.0364403195182318,-0.28817847621390397,-0.15384719332962266,-0.05177293653609337,-0.0739601341786014,-0.27775327563177005,-0.2825252968137297,0.014917178453770507,-0.09078234573966464,-0.37924100790608184,-0.07395973647096703,-0.2823910512669226,-0.19322939359913066,-0.08645895957296622,3
4.7,1.75,2.075,2.925,14.4,21.325,5.45,10.125,284.0,97.0,128.0,184.0,955.0,1286.0,334.0,647.0,18.0,12.0,12.0,21.0,25.0,17.0,17.0,19.0,-0.28909043694365777,-0.015766671334745234,-0.3000469221858362,-0.05555137005400343,-0.393447371022208,-0.24699559706245616,0.09147126608679153,-0.12021447551070277,-0.40343514446757084,-0.2659812257416964,0.0667622811327003,-0.12275577270728107,-0.29017046929240387,0.10283345026922046,0.03683555052037902,-0.2604832312899995,-0.4230320676545702,-0.18402984254613283,-0.15570246391801199,-0.5103086644632566,-0.2899456095830165,-0.10028399151973051,-0.08952706872252156,-0.2355946530343329,-0.30510277653783086,0.025993526096434565,0.028475674322848653,-0.261394109026673,-0.49483618471354407,-0.23564164081978717,-0.3783242729358536,-0.056721173169727995,3
5.175,1.975,2.125,2.7,11.925,24.225,4.9,8.175,348.0,114.0,114.0,174.0,790.0,1366.0,284.0,552.0,19.0,12.0,12.0,14.0,14.0,13.0,10.0,13.0,-0.5358029674425527,-0.19639448001276308,-0.0977944282373718,-0.2955916081271391,-0.1818988529164662,0.12288213807699098,-0.09802657432696343,-0.3781076126300551,-0.12399440872626113,0.13354374930890694,-0.12483686462783601,-0.5849107665088542,-0.28430023391892667,0.16459076714942011,-0.15045869128499398,-0.279222825708533,-0.429377557161273,-0.23876772936874419,-0.265961591556635,-0.21595493474304045,-0.2898857404616101,-0.13541915777473332,-0.29350015667201756,-0.4550182997937643,-0.2732077078913689,0.004910677891561379,-0.2927351107200897,-0.44815367524308425,-0.6565064499564544,-0.31448259975045817,-0.4692966646467037,-0.4423003506105365,3
4.025,2.5,2.975,3.175,13.825,22.925,4.95,8.2,247.0,150.0,143.0,183.0,956.0,1413.0,252.0,500.0,18.0,11.0,13.0,18.0,24.0,16.0,15.0,19.0,-0.24878525505726146,-0.025592064103345094,-0.08621005896321646,-0.2439911568001931,-0.16406791358993672,0.15485059154190126,-0.277419646522268,-0.23983878394708602,-0.05183002712022921,0.11613281539329787,-0.24428993390896997,-0.3740184374652509,-0.21473703988431392,0.13107931551758897,-0.12775824197656624,-0.32838040876257024,-0.39788826878672406,-0.07567351545936277,-0.2077017284412408,-0.18098198950773167,-0.1619641002233586,-0.03279473058990371,-0.21227824798589737,-0.009948476758569092,0.2070625216817365,-0.43429487361002705,0.21165854384511956,-0.37094321787344314,-0.17848755152893192,0.012042527352409073,-0.27897525681418034,-0.13450164909509585,3
4.525,1.725,2.2,2.725,11.95,25.975,4.4,8.25,315.0,98.0,121.0,175.0,765.0,1640.0,253.0,587.0,20.0,11.0,13.0,17.0,17.0,18.0,14.0,22.0,-0.36154619403174215,0.09594579411724165,-0.09826782919523085,-0.3170079799685937,-0.22431012906936323,-0.17599987341776874,-0.266796659831893,0.12911157164827483,-0.4235129995736533,-0.3457444123992911,-0.45942559889936374,-0.20011326240759364,-0.40458893559161235,-0.3009032404984055,-0.2838064374731313,-0.02439055771796827,-0.4270203530592111,-0.31295166255343826,-0.1664049694521979,-0.35635877863349336,-0.43042587839901714,-0.45808501511963773,-0.12842583940577473,-0.23586544975265164,-0.49744372789092056,-0.6153660837231577,-0.22339345801122518,-0.1392645773611837,-0.49581249688321455,-0.04945269024245561,0.07539982164913521,-0.12457778936792595,3
5.975,2.525,2.825,3.0,14.775,26.225,5.15,8.025,384.0,138.0,151.0,167.0,988.0,1654.0,284.0,493.0,15.0,14.0,14.0,14.0,21.0,16.0,12.0,15.0,-0.2141345679203852,-0.18779923430554177,-0.3018697619034189,0.10257709280448507,-0.2700625646512316,-0.5304348443808063,-0.35172073477159616,-0.3298073621911169,-0.2575794115339637,-0.6539547204571543,-0.3781910857807677,-0.4048132592718778,-0.21015058484172885,-0.4601001310506327,-0.31317619303838956,-0.08734984727986131,-0.629425636537835,-0.2821633996836486,-0.17751015329581052,-0.22061560334779054,-0.32982199591068817,-0.21359856584166664,-0.021664658791452615,-0.2009011782577198,-0.21153146852063978,-0.3240692380654497,-0.25756921897911794,-0.10807764907935366,-0.295593362646991,-0.055871894927145706,-0.07485848519691236,-0.08739741953814571,3
5.725,1.925,2.55,3.175,12.2,25.5,5.65,7.675,340.0,114.0,159.0,196.0,796.0,1716.0,381.0,490.0,16.0,16.0,21.0,20.0,19.0,19.0,22.0,16.0,0.002660682482829566,-0.02807567496838339,-0.3382307936309338,0.043442544224290815,-0.38981511260094986,-0.2580233005881942,-0.2182963052272941,-0.2946265487091679,-0.425306989243379,-0.4705042001903273,-0.34916226465563843,-0.49731058083984553,-0.595734285098052,-0.407211757146768,-0.5244653946391509,-0.4925479429980113,-0.5754729173395913,-0.14679507124863939,-0.28559717442232097,-0.3804069481316736,-0.547651054891625,-0.21374083255615686,-0.3210567345400289,-0.15584241040945357,-0.7259550117005267,-0.4188444210667485,-0.5131031864048605,-0.3693489400964596,-0.5692124391441858,-0.3861449147924546,-0.29249388168493284,-0.3656318594234799,3
6.075,1.6,2.05,2.45,10.95,24.75,4.775,10.25,368.0,105.0,114.0,143.0,709.0,1737.0,337.0,634.0,14.0,12.0,11.0,16.0,23.0,23.0,22.0,14.0,-0.07928169477880853,-0.10279742016556628,-0.025396092728010505,0.024489575481586617,-0.4010792980216127,-0.10276967294462881,-0.17930346766690997,-0.03790432658605016,-0.1442337229814137,-0.16590093979888826,-0.3935804547818212,0.08444244378810184,-0.2852480319029373,-0.25375804171076605,0.07156171324655496,-0.10001945385148385,-0.38887975062715235,-0.24366325353418344,0.05804785151699638,-0.12146701699542636,-0.7006171232047367,-0.28783096574167916,0.003806407370516176,0.006578277974782506,-0.7306163461027292,-0.3713394661231884,-0.1584582202195216,-0.0008027553356777478,-0.2273926947013299,-0.0862063088112247,-0.20182367288838385,-0.12654880623147663,3
5.425,1.75,2.05,2.625,14.025,23.725,4.175,10.05,339.0,94.0,103.0,162.0,931.0,1445.0,280.0,671.0,18.0,6.0,11.0,13.0,18.0,15.0,17.0,19.0,-0.23818686214051213,0.03564756202366923,0.07705984631138275,0.1383898774425607,-0.2539083910686238,-0.21258441861004101,-0.2855184050802443,0.04279433478338324,0.11125071674547309,-0.28610572281369967,-0.1491768658659406,-0.08612119341635374,-0.27721115449203154,-0.521282559613451,-0.058317308789373294,-0.29129071535866324,-0.5032234112869535,-0.26787903135835356,-0.13006890319192027,0.13635166113571864,-0.344963621739461,-0.41311501860124333,-0.13248442980856928,-0.17782187282410375,-0.7513863108319228,-0.48636297007923457,-0.301807890178081,0.021388089839510675,-0.5791900024143188,-0.10936952456317119,-0.13515824497745896,-0.0575028650167155,3
5.8,2.1,2.075,2.675,13.6,23.9,4.95,7.95,358.0,105.0,117.0,176.0,915.0,1502.0,285.0,499.0,13.0,11.0,12.0,16.0,19.0,17.0,15.0,15.0,-0.1963002093056112,-0.28331479874502885,-0.28036962143440974,-0.1027753190130523,0.018927315921595307,-0.1455500153445795,0.002276887065495961,-0.41929316124825583,-0.1855903978808127,-0.33719453369832847,-0.10465918702994359,-0.34039949479920606,-0.5849658602818683,-0.3239143640429711,-0.14453054580358535,-0.19696971166741,-0.6015455639668226,-0.3012447065146391,-0.18178666761035916,-0.332046325513193,-0.3145923277580128,-0.4228814886419418,-0.16083193964384962,-0.5863490362336262,-0.33650012849667027,-0.29797585646330205,0.010264868855947502,-0.351241291340516,-0.29612775189170254,-0.14022198459386345,0.15605566900991932,0.1396989849938013,3
5.675,2.05,2.425,4.1,15.725,24.65,5.8,9.975,336.0,108.0,154.0,251.0,1045.0,1607.0,385.0,509.0,13.0,11.0,13.0,17.0,18.0,18.0,16.0,10.0,-0.25244740333489596,-0.12776675917988037,-0.041853441013151436,-0.020274330807032722,-0.16229193073946643,0.039673253949699144,-0.2487428506985888,-0.07766259304065204,-0.298079116483854,-0.0023942782798615893,-0.14862371999679252,0.023521171346807097,-0.5280195752950986,-0.217092715009991,-0.0960914760331259,-0.2893783291047719,-0.46177891559426004,-0.19850853614395542,0.05850471873743729,-0.3148247711057574,-0.371771300893728,-0.39687454365896924,-0.13884321816369344,-0.5509216453580377,-0.5014383020785371,-0.3495837995672678,-0.0914838826593008,-0.41734866718784586,0.03724860347613618,-0.4338230038591246,-0.058220344365095454,-0.43098882875780686,3
4.975,2.175,2.55,3.05,13.45,26.075,4.975,9.5,327.0,123.0,139.0,164.0,870.0,1772.0,337.0,541.0,16.0,14.0,16.0,12.0,19.0,19.0,18.0,16.0,-0.4952042485495088,-0.18843955956836678,0.015739196057064805,0.05452950240490522,-0.26476462064741,-0.6865190029325529,-0.22395936598257138,-0.3747189229815889,-0.38000302038432016,-0.6238776376427044,-0.2324305206525577,-0.2850629683564153,-0.69156358792569,-0.7559177491071636,-0.40306636932449,-0.27305004660327925,-0.42516352681964137,-0.40929055594686065,0.09250549956973858,-0.1571481212082154,-0.7313733262886176,-0.5682862965650182,-0.23397531097044838,-0.07100155721609029,-0.701695738505894,-0.6103196005432848,-0.3807767408542327,-0.16414423065849232,-0.21939655970143648,-0.3132827837002914,-0.07405383967551478,-0.3477976042118927,3
5.875,2.05,2.45,2.775,9.725,18.75,3.775,6.4,399.0,117.0,118.0,129.0,613.0,1181.0,203.0,387.0,20.0,13.0,11.0,11.0,17.0,17.0,14.0,14.0,-0.32462570230707405,-0.19319553065036293,0.10154224792644548,-0.02407312094317182,-0.3479062458820531,-0.12636308257863677,-0.4194003104771109,-0.3830689079483669,-0.2631565354595418,-0.2625571438744279,-0.435981406528842,-0.30204247967617776,-0.4493433077929201,-0.5450386164416121,-0.39913738200736754,-0.15639134687689335,-0.37440229990852336,-0.19956696191718248,0.06256436122834118,-0.25243726437344827,-0.24688057797872215,-0.17804253262705183,0.15784523709049386,-0.1225393061704692,-0.4628282892591879,-0.5206053367078064,-0.5388418360430246,-0.26497051778331865,-0.028796823433160684,-0.17640852153881492,0.023614491444725577,-0.26000217482721943,3
5.25,1.7,2.075,3.125,12.15,24.5,4.9,5.725,379.0,97.0,126.0,195.0,791.0,1656.0,328.0,315.0,20.0,17.0,15.0,17.0,19.0,15.0,21.0,14.0,-0.6802993843867466,-0.4249363523795402,-0.24418914242308914,-0.06054245936452495,-0.11437202068448396,-0.14326319365702087,-0.3665286197449406,-0.045026324430354765,-0.3051703270355311,-0.10763058040550808,-0.14029966158662344,-0.19179537396311083,-0.27075675392043325,-0.008273260470961611,-0.02246094163437076,-0.243351051380898,-0.3448373380218828,-0.10946824821251779,-0.09564343493291784,-0.06361207730013743,-0.43588975921740214,-0.10888517532579584,0.13052767083202024,-0.0862914558871433,-0.5856154922585722,-0.1860603251861855,-0.2236198304655676,-0.24890697406700682,-0.09248398718024976,-0.1084804918308295,0.030515023425897715,0.0732154888662564,3
5.95,2.2,2.925,3.05,13.675,21.5,5.7,7.7,391.0,137.0,196.0,193.0,930.0,1499.0,401.0,443.0,14.0,12.0,14.0,17.0,21.0,18.0,22.0,15.0,-0.39781025537683123,-0.25651550860150474,-0.15966525285742578,-0.19100021343701823,-0.31045017825919935,-0.1687209240134575,-0.07227617233660906,-0.19795064886063335,-0.5753227031588147,-0.3062799640603761,-0.18565519706782224,-0.3094864483791458,-0.31180591219608855,-0.1877012861440309,-0.06104409049684069,-0.3097714544549446,-0.9117865484170317,-0.8245273673637474,-0.5197373120541314,-0.1928997832644385,-0.784976520996088,-0.5061726997599311,-0.13230220358348224,-0.012467642807039655,-0.838092245439367,-0.3461358492105746,-0.1602626312226386,-0.20979794642154947,-0.41091197173633387,-0.3396592567006785,-0.2388930109864696,0.04684502600100284,3
6.075,2.45,2.725,3.425,9.975,24.575,6.025,8.575,387.0,127.0,148.0,184.0,639.0,1460.0,370.0,531.0,17.0,11.0,11.0,15.0,18.0,14.0,14.0,16.0,-0.35513836208791033,-0.3338102283798803,-0.27643165461046937,-0.1323789170260995,-0.08457023551838976,-0.0910258328982887,-0.11124290400785379,-0.5016613619037197,-0.0846138851964085,0.036714131294863825,-0.03658360168893119,-0.47139903489961776,0.04981794295286251,-0.357465814558175,-0.0365337412284029,-0.13555069628264085,-0.7188025679186107,-0.8076966296516523,-0.350898665537208,-0.31780789541070514,-0.294895558919224,-0.4958709568684982,-0.2668457941277119,-0.14416549458534925,-0.26162868660357874,-0.14448547126092753,-0.2022755561883345,-0.30609591936795433,-0.361429148369207,-0.0850330870074575,0.045205457504689954,-0.1568808494673257,3
6.025,2.45,2.425,3.425,9.025,25.95,5.8,8.35,364.0,129.0,134.0,179.0,516.0,1414.0,295.0,454.0,17.0,13.0,13.0,10.0,14.0,15.0,11.0,15.0,-0.28120898426813395,-0.19774381784088196,0.007260079518787429,-0.1863548526833918,-0.10222985041331038,-0.21931409403635324,-0.21077493115577753,-0.36569056639197295,-0.13594378314137803,-0.2515015191492149,-0.35537707536171126,-0.3583164542039661,-0.07858584363077731,-0.4174500009011495,-0.20968431304614307,-0.4358541898104536,-0.256131004395157,-0.48110766518230896,-0.0399046304720908,-0.30679853738744833,0.10031430130443422,-0.792726276963972,0.10371861680951722,-0.45043173843030926,-0.09071808488968837,-0.23917994867662484,-0.3577850691801548,-0.2505096789747209,-0.039171844624279584,0.12890930627696137,-0.024849061003878688,-0.2559960396554198,3
4.975,2.325,2.65,3.075,10.575,19.55,5.0,8.575,274.0,123.0,135.0,174.0,658.0,1197.0,281.0,545.0,12.0,11.0,9.0,13.0,17.0,15.0,13.0,18.0,-0.21060164688648267,-0.028208411217687083,0.046980774416320335,-0.01893414880067477,-0.04593613541935336,-0.07183083765898841,-0.18348362183585198,-0.1745515036965517,-0.07375768032564692,-0.14582920916196168,-0.12077013325696025,-0.08948701173084729,-0.1138391514677699,-0.07383418685233104,-0.1473518405089333,-0.23668451039457788,-0.3799069770381986,-0.415578816144406,-0.11919204735716524,-0.08500446308311622,-0.3720019588753809,-0.25403049423497814,-0.30468632238170723,-0.29991955752148564,-0.006037253242505119,-0.30972561638536555,-0.03226644989660939,-0.3119493300884213,-0.375639108889284,-0.1623241823988472,-0.2590497087583162,-0.15478611821830895,3
5.7,1.95,2.55,2.675,13.5,27.675,5.425,8.475,337.0,85.0,118.0,167.0,1002.0,1911.0,331.0,600.0,18.0,11.0,11.0,9.0,21.0,21.0,17.0,21.0,-0.2977639898117136,0.02748488152678685,-0.19433516169926945,-0.2618913736334141,0.001064263533599729,-0.1970705703780758,-0.46309692790710316,-0.26295596128019066,0.01277862289744441,-0.24281941576135802,-0.2305268644061337,-0.17800508667512321,-0.24900664527198757,-0.09007475559941895,-0.5033916357837198,-0.2775672122127229,-0.6959700306884576,-0.30150462187773025,0.07073814570075239,-0.12811372794644874,-0.6438749850453241,-0.43898259186291755,-0.3307650621912115,-0.3467469507624423,-0.5631515096896728,-0.29581973588219623,-0.5040733984581055,-0.5506401152839847,-0.5263007320555759,-0.28319802852657816,-0.09889929429614239,-0.23013436321707653,3
6.15,1.625,2.1,2.5,12.95,29.975,4.9,7.725,396.0,92.0,115.0,147.0,891.0,2083.0,254.0,443.0,12.0,14.0,10.0,14.0,16.0,18.0,16.0,17.0,-0.39977146465496954,-0.10248448579551672,-0.3239415382594376,-0.29364676657533595,-0.31801034746006235,-0.2516640249802845,-0.3653304255826754,-0.23512606246821954,-0.3113689661146408,-0.48836546942815146,-0.1726033842011214,-0.28982175121368775,-0.48285366547986924,-0.4447408155228701,-0.26566871339115594,-0.18046660762008893,-0.43548692765522085,-0.2528622246409617,0.06401434746794063,-0.10855084029221647,-0.507939110120537,-0.25006275222937857,0.06425206722266298,-0.1096189073562244,-0.07647431073658716,-0.18864501161969519,-0.10297169099177743,-0.011953582366106654,-0.11434336979222554,-0.32512016200410004,-0.16398998200298698,-0.24515636991587225,3
7.475,1.675,1.925,2.55,13.825,22.2,4.9,9.8,478.0,103.0,110.0,155.0,964.0,1294.0,280.0,571.0,18.0,14.0,17.0,14.0,22.0,14.0,18.0,17.0,-0.17412367387340588,-0.08841455637537587,0.1835803379238954,-0.05758816446762674,-0.36227653027643514,-0.24825960430313518,-0.18271388275794864,-0.37431103746172795,-0.2558494629215744,-0.3779599384737821,0.006778250990274553,-0.09120449601102666,-0.5021586592205604,-0.38735364438757636,-0.14260832466507042,-0.06977901872293228,-0.5994954291357432,-0.3950910315506595,-0.40796824069538795,-0.32496144436532726,-0.17822511616306713,-0.30198513454480974,-0.23324298868606383,-0.07060101502577214,-0.1279735282432836,-0.3588793825474663,0.09972993524445849,-0.014205914045922407,-0.23911459729102866,-0.7563070002368845,-0.21502605211602782,-0.5772269431334678,3
6.375,1.8,2.125,2.45,14.075,22.675,4.975,6.3,409.0,112.0,127.0,163.0,918.0,1344.0,311.0,378.0,18.0,11.0,17.0,20.0,18.0,14.0,16.0,19.0,-0.3644981344894133,-0.10985002431023431,0.09348004312729018,-0.04186039565117769,-0.5338601043228149,-0.05842532442192085,0.23313183696974069,-0.0005143414180759963,-0.5092395248965482,-0.09534175230463193,0.08571786580500149,-0.09983954520081399,-0.5310843239756564,-0.31586221217571464,-0.25500657591208553,-0.29698524749909166,-0.37389800589751143,-0.21231737683865742,-0.21610648259185666,-0.2750604998982375,-0.2365857147358049,-0.356625484403469,-0.18865947353787782,-0.3095260459348248,-0.37695533935535713,-0.553380223664861,-0.31381372291868515,-0.22467551624087445,-0.339548873970657,-0.26992007165852305,-0.33421030330321855,-0.2927775761532082,3
5.05,1.8,1.9,2.675,19.4,32.1,4.625,8.375,332.0,96.0,99.0,177.0,1167.0,2002.0,309.0,561.0,15.0,9.0,11.0,17.0,19.0,13.0,20.0,20.0,-0.45106911261614735,-0.10579274516265912,-0.024884303408203152,-0.24014386798416865,-0.3550047121827176,-0.10631482463919875,0.08290090293198425,-0.2472277017103873,-0.26420060562939585,-0.09154788117385307,-0.09390177945987112,-0.2914330346655695,-0.2687923286402858,-0.08601720126728302,-0.359672823408055,-0.12538537198683453,-0.7588341268143008,-0.7100503261232275,-0.7014210207376089,-0.5634206564595818,-0.5770033572499297,-0.49720290315695936,-0.5857778672165996,-0.2997287503989697,-0.52175349114829,-0.23535083909202728,-0.22407105554398438,-0.16381059363665781,-0.3135922049154586,-0.15696365739745208,-0.04908495219901745,-0.20350807178320915,3
5.85,1.525,2.2,3.15,14.075,24.725,5.775,10.375,403.0,82.0,108.0,206.0,867.0,1604.0,339.0,691.0,16.0,9.0,10.0,16.0,20.0,20.0,13.0,21.0,-0.50625725217509,0.08526558250974141,-0.3128907981867585,-0.38252866778094236,-0.03447278550567879,-0.07307521290250504,-0.12492791932006184,-0.11747941117255603,0.13471139102116383,-0.36429866588720977,0.01448637715656557,-0.28662420682334583,-0.3405563639818099,-0.35435290828567034,-0.09169175641974327,-0.22730642777987825,-0.6904003476923504,-0.6325046839868471,-0.5997438277763755,-0.33743971740872186,-0.528302858074082,-0.5090752331402701,-0.35422847780859334,-0.14488904324826424,-0.5468818869868832,-0.6247002577601934,-0.33236921658868734,-0.34362741205634173,-0.44020569225869166,-0.21828803819965123,-0.28922843713149954,-0.46787120296070916,3
8.75,1.95,2.35,3.15,12.875,25.125,6.6,9.4,607.0,112.0,128.0,186.0,860.0,1562.0,402.0,628.0,20.0,13.0,13.0,9.0,17.0,17.0,15.0,15.0,-0.5409426142407244,-0.09395267239848576,-0.23176506225126955,-0.23481362183407348,-0.14575438800488433,-0.14803975357679813,-0.36612839229307953,-0.013975739719307835,-0.3903352159249064,-0.5920844390933713,-0.45689325521629687,-0.34462217610357615,-0.3463995302430526,-0.4340264854443356,-0.2566502890186612,-0.48905998382082233,-0.5901719260283589,-0.5720824192051793,-0.2967119075822545,-0.4458837536155624,-0.3881563383816392,-0.43133048112144107,-0.35185558852267057,-0.38699674583510046,-0.5873121489852083,-0.5483257022118219,-0.5109628852397324,-0.5255139706772107,-0.49681441269091564,-0.20155999840769354,-0.3826788430257771,-0.5113949571928642,3
6.075,1.875,2.5,3.225,9.25,21.65,5.775,7.125,362.0,108.0,137.0,201.0,590.0,1334.0,344.0,455.0,16.0,14.0,15.0,16.0,18.0,14.0,18.0,20.0,-0.18534636123691722,0.05111794553326861,0.09678949031237538,0.021335286045725824,-0.10791314601552966,-0.28312305654300624,-0.45929516004833465,-0.0696109768853184,-0.34851922445311045,-0.4248917708450533,-0.4089451464199594,-0.130529870632642,-0.4004044737610651,-0.23601766619963152,-0.24936305391110047,-0.24361985167984007,-0.24144370806863988,-0.1210450515235269,-0.06604230817931703,-0.135327528638259,-0.31671651332449346,-0.11580904160627045,-0.08532987038258559,-0.3250741873697564,-0.4647697421923053,-0.20924025292889673,-0.35597048589249397,-0.31738018920013206,-0.2769797226431582,-0.18332808655120034,-0.10068671905212447,0.07844970900745768,3
5.975,1.65,2.0,2.475,14.55,21.625,5.375,7.2,400.0,97.0,118.0,155.0,997.0,1471.0,351.0,460.0,23.0,11.0,16.0,17.0,20.0,20.0,15.0,17.0,-0.5251905138040189,0.0035454526364283247,-0.14210953604973453,-0.30161238665941476,-0.15698446094074575,-0.020074394965585673,-0.10832164625312199,-0.22412482455384228,-0.3122426605061512,0.04568849599850722,-0.07218227019825756,-0.0914576693499348,-0.347666534246408,0.13243588413080096,-0.03324229691336854,-0.08520850019148239,-0.5248115322271585,-0.29256146505897557,-0.4999298620933002,-0.12554373447141606,-0.7284954589866003,-0.494526888245683,-0.4495132465262043,-0.021019854638927873,-0.5768113747431672,-0.19220311010072685,-0.1321133988514127,-0.07886429386574846,-0.3755814914127127,-0.057704668351971106,-0.1760333247077124,-0.17999143981247998,3
6.875,1.5,1.85,2.675,10.15,17.4,3.6,7.45,419.0,75.0,95.0,170.0,637.0,1027.0,216.0,440.0,17.0,9.0,10.0,14.0,14.0,14.0,15.0,15.0,-0.3545833805190858,-0.11176200314286927,0.18255147816810235,-0.12498803235141386,0.08852797374434919,-0.12318048251349434,-0.005444848216727872,-0.32155545870623653,-0.15328566877498734,0.040684342258060426,-0.21509339451325274,-0.3034535915754892,-0.46362323915951686,-0.12733460325290097,-0.1484485561493403,-0.14091224377018993,-0.32401759451314555,-0.23986639781630745,-0.32791185109653087,0.070967871835871,-0.34558523126007096,-0.22934598141107077,-0.3885953142666471,-0.07624884602167448,-0.4679113712608072,-0.03924989536680521,0.3204724879310353,0.055777580213364465,-0.3755898266685262,-0.39449759109254334,-0.2953281636190833,-0.2105866938802944,3
7.675,1.725,1.9,2.825,11.525,18.025,3.95,9.125,487.0,99.0,114.0,173.0,810.0,1236.0,263.0,577.0,19.0,11.0,12.0,15.0,19.0,24.0,19.0,19.0,-0.5793532764215579,-0.3679473470631155,0.022080816567914597,-0.09452368968943729,-0.2528502905942622,-0.09576013170256419,-0.35183418959111445,-0.38302677595089507,-0.18817047262047754,-0.31947188899706574,-0.13103789733298668,-0.5068196516329614,-0.4010028028561845,-0.2591553544883122,-0.2707172202383848,-0.3025845582064638,-0.5836646923023969,-0.31259822572902746,-0.21000298948021776,-0.19384916879723074,-0.538535594477316,-0.05991251136378969,-0.028478345879145914,-0.23575732861524049,-0.514576097626074,-0.17200919227944442,-0.38849976169466754,-0.4976719322448902,-0.4076320719204239,-0.3036367754375202,-0.06510097226033197,-0.13963419758290455,3
6.175,1.775,2.2,3.0,11.2,23.15,4.875,6.95,350.0,97.0,123.0,192.0,747.0,1567.0,327.0,469.0,17.0,15.0,13.0,18.0,20.0,21.0,17.0,15.0,-0.22211862482405653,0.055564570086877804,0.1930801497988353,-0.05840118484199919,-0.18358770133220287,-0.329409526091544,-0.31191893459715014,-0.13716333051159177,-0.3563573912050561,-0.433248694233479,-0.34435671300492154,-0.4264959758296669,-0.6856348165990727,-0.5303447932151725,-0.4108168220392827,-0.5160076084527155,-0.49039868805733966,-0.43533645670360777,-0.08399469709670161,-0.3266856139066382,-0.868746626180021,-0.6785284977214235,-0.6666316250441554,-0.43029947393805307,-0.6317060458499048,-0.3530588057263244,-0.5699640577566014,-0.5849559247265316,-0.32166058498644784,0.05955386550777528,0.056094914108037235,-0.3209269622605336,3
4.95,1.525,1.925,2.425,10.975,19.65,4.0,7.5,284.0,94.0,98.0,138.0,732.0,1325.0,245.0,466.0,16.0,14.0,11.0,10.0,19.0,17.0,11.0,19.0,-0.2099223943612756,-0.05272527946246152,-0.1845375051996369,-0.06040603789840749,-0.36523349127598476,-0.1528391571249367,-0.378361675737992,-0.3466902248103438,-0.07310284709158531,-0.1178640267750056,-0.11886736615627198,-0.48436216612038635,-0.15993027407202726,-0.037059904373220404,-0.03072467726609686,-0.34122438217695295,-0.36543622626805805,-0.2573950705867368,0.0486471648159902,-0.14658284496982632,-0.3082037784285474,0.11305430323804971,-0.14402059495676645,-0.14953680246200066,-0.15203836311333785,0.2476619208078031,-0.249676902079339,-0.28870810436321676,-0.281765077819188,0.02262227605370995,0.033959779290828426,-0.29656801931826904,3
5.375,2.05,2.25,2.675,11.025,29.175,6.075,9.0,342.0,137.0,148.0,169.0,696.0,2023.0,417.0,569.0,19.0,14.0,15.0,18.0,19.0,24.0,21.0,17.0,-0.4793687551147249,-0.10016714242893472,-0.38463633806639463,-0.44019649100067065,-0.4754558180361248,-0.17666472130265842,0.16595807330350723,-0.15586301031898167,-0.2882225417402362,-0.5400940904285759,-0.08392594981755022,-0.5320615874452009,-0.6919358401301452,-0.47712325827507496,-0.2046588602859609,-0.29501007234846366,-0.4066550488239721,-0.16183990094602227,-0.48431729125160145,-0.30141556162313493,-0.7902803946935142,-0.42261260996026623,-0.3362318244189051,-0.2916808618669626,-0.6964802561911876,-0.5297507596117427,-0.3003574021433524,-0.4263331299684725,-0.34287354625070093,0.05631086551231023,-0.025452924949254233,-0.47064780594920796,3
6.375,2.1,2.625,3.35,15.6,32.35,6.75,9.325,401.0,119.0,179.0,232.0,1114.0,2313.0,447.0,625.0,15.0,12.0,14.0,16.0,20.0,19.0,14.0,22.0,-0.30577739371503004,-0.22102270144963684,-0.07484601611198625,-0.1763455297404338,-0.3002747920412859,-0.23829559024318708,-0.07503627761656062,-0.3794198123862879,-0.43714553608081985,-0.32359841281825785,-0.17065347205497342,-0.29303554685360306,-0.7201423747887362,-0.5127892366716178,-0.15899581685264638,-0.2995525769831172,-0.7279467127810993,-0.5360866315078896,-0.3405684244081155,-0.42944690854344686,-0.8815883641879745,-0.7308870326066403,-0.4051049126510486,-0.40030260049900174,-0.4297026032521253,-0.2641749049661495,-0.08657304672410097,-0.32441218331999083,-0.5105719969290033,0.01676233180836281,0.25447127254735563,0.023671848508331796,3
6.25,2.225,2.15,2.95,16.15,30.475,6.65,9.0,400.0,126.0,122.0,208.0,1078.0,1950.0,426.0,575.0,19.0,14.0,11.0,14.0,16.0,16.0,17.0,19.0,-0.39746539653283897,-0.11258189929267746,-0.11233282261655321,0.03164986777120983,-0.5321335836586917,-0.40152972086706823,-0.31695281171602585,-0.3380076753435636,-0.24923341801853272,-0.16912743827385282,-0.0036060709524105934,-0.29607231932813144,-0.4102121779541752,-0.30536044092222636,-0.17500242973256414,-0.491860145867497,-0.5749379793174725,-0.2827409557760999,-0.36141649463290787,-0.4289352839459323,-0.5708997816455915,-0.31369374241106884,-0.2846709435709075,-0.35329009739415024,-0.3229502710157733,-0.42554508792784934,-0.03042184290659199,-0.42991819538752307,-0.486630345748101,-0.16989363058852666,0.11195334862072134,-0.21244265810697657,3
6.875,2.125,2.475,2.525,16.675,26.875,4.8,8.825,416.0,139.0,157.0,166.0,1108.0,1689.0,300.0,547.0,16.0,16.0,18.0,16.0,17.0,18.0,19.0,15.0,-0.2631145656346875,-0.010268544200311145,-0.04160814356852245,-0.11180381739838773,-0.6935903361748704,-0.19719116836239456,-0.30698633985506474,-0.3585658345904509,-0.5228874153395022,-0.06334995268603406,-0.17138040974527646,-0.1439445752300766,-0.3963914936457865,-0.37942873771871743,-0.24553591226483334,-0.265655231662853,-0.6578030274413552,-0.5194530600288282,-0.3898271109960887,-0.19878257447815728,-0.4145396587157892,-0.3946895940154129,-0.25077817241009137,-0.025632248942656283,-0.36266067774259336,-0.6892558664695907,-0.1508543818036495,-0.306412157386568,-0.44429766252453073,-0.13952645526794805,-0.26894834619430996,-0.24237109612190366,3
6.675,1.775,2.15,2.575,14.875,27.05,5.925,9.45,440.0,112.0,128.0,180.0,944.0,1720.0,384.0,553.0,16.0,16.0,13.0,18.0,18.0,17.0,18.0,18.0,-0.39017593366455655,-0.16328980697075982,-0.4283199324236741,-0.3661202490182767,-0.3632386471277128,-0.1328025162357112,-0.23552854896944422,-0.24427347181209969,-0.4224737122686403,-0.26291932784600425,-0.20899410917907768,-0.3988670965224188,-0.618281930638755,-0.32536040851354797,-0.17229506956153617,-0.2621919670121723,-0.6954113545974553,-0.49931990394073766,-0.3271149797111137,-0.1862348793810234,-0.32888378539552937,-0.3534908900663854,-0.0958789531734879,-0.2415425714178631,-0.36208996556572315,-0.6144523294491788,-0.08006058002419701,-0.47274945041217153,-0.3516750972746977,-0.18703291201095473,-0.37172516998278965,-0.4241512263683561,3
5.625,1.6,1.925,2.725,15.35,29.2,5.325,8.25,337.0,84.0,100.0,181.0,1039.0,1835.0,332.0,552.0,13.0,13.0,8.0,13.0,21.0,17.0,17.0,18.0,-0.11649728955009447,0.1764258190773231,-0.2595589963898866,-0.33075369965201845,-0.08188149874320207,-0.2924546996243749,-0.16610295581429546,-0.37957719448917976,-0.04817854791249725,-0.22319816004439164,-0.16925467152467608,-0.3382715011822067,-0.2737872053712404,-0.4400241770314252,-0.12722967315892852,-0.4849482444310467,-0.6876299955701813,-0.23638107458677768,0.16922486198999695,0.11073204210493198,-0.5529129438897433,-0.2717025400372989,0.05232191749376108,-0.04263316886156501,-0.42567771865736664,-0.43510965256405193,-0.1324451315140234,-0.3716485125182337,-0.3753681306044322,-0.1951711203546503,-0.022408717542920276,-0.20327133095053287,3
3.725,1.825,2.075,3.225,13.75,27.15,5.35,6.675,246.0,93.0,122.0,194.0,892.0,1695.0,306.0,469.0,17.0,12.0,11.0,14.0,18.0,18.0,10.0,18.0,-0.181428010172774,0.06612749474163528,0.10356260046259678,-0.2990027667491016,0.09836415364190855,-0.33977209068437897,0.10547647129701003,-0.15930428611874323,-0.006699301009010951,-0.419379248793198,0.01843928206113443,-0.3826318127772496,-0.33763221930445614,-0.27101754951720347,-0.33396884770111057,-0.5253351316425579,-0.6039719572743149,-0.2921854400953376,-0.2914571120841496,-0.3880894074238345,-0.4982543500918303,-0.22014147092710987,-0.15449504532552535,-0.40582645356209396,-0.2983518661909162,-0.31762003725606386,-0.20637913744376674,-0.504788014943484,-0.5051908368427995,-0.09743336397210552,0.1354783505820556,-0.07089943901436709,3
5.075,2.725,3.075,4.025,16.925,28.35,6.45,6.95,329.0,150.0,167.0,260.0,1165.0,1901.0,397.0,469.0,18.0,12.0,13.0,15.0,21.0,19.0,18.0,19.0,-0.2084351533399866,-0.05550933015753508,-0.05592920102605781,-0.251554153460071,-0.32374430489612266,-0.5910059137789021,-0.4065540552870672,-0.2743907325448569,-0.34654378579855905,-0.6087170373556781,-0.4185597597183272,-0.4085044646545776,-0.6497086504309322,-0.5555553794439958,-0.41181570760332414,-0.3665751023679201,-0.7538257864226632,-0.4118943850429483,-0.45928266600120693,-0.4207545383173385,-0.5694032987686013,-0.2977177887792053,-0.26142547066953903,-0.26375681891918895,-0.6370186690943535,-0.5443103977659981,-0.5277097749155981,-0.34308878309625856,-0.18045260619793682,-0.19943626757435842,0.07749834340016412,-0.08016292839142651,3
6.6,2.5,2.425,3.7,14.45,28.1,5.8,8.575,429.0,148.0,147.0,265.0,1050.0,1998.0,404.0,567.0,14.0,13.0,16.0,18.0,20.0,19.0,19.0,17.0,-0.3650064108370503,-0.0003573595296544689,-0.1309006413083303,-0.24573481914438872,-0.4360617119403433,-0.2866575233631354,0.023575165773458327,-0.08540685445470281,-0.49528402273735783,-0.46792735427340076,-0.2858083135281114,-0.3569128593965212,-0.6024924843390812,-0.16744021296309175,-0.19305683737643337,-0.4143281952508553,-0.755485963685028,-0.39617422479411135,-0.5302175464941806,-0.3260181941496099,-0.6768677298330035,-0.42885569450030675,-0.3056149471506835,-0.19611825933038804,-1.170551174329368,-0.9357880813146634,-0.39047131666461093,-0.06779507282564179,-0.440585512936435,-0.1837450682705465,-0.26652353213452706,-0.2281787183636799,3
8.3,2.475,2.65,3.875,14.175,27.45,5.95,8.475,542.0,152.0,159.0,224.0,872.0,1653.0,382.0,543.0,23.0,13.0,12.0,12.0,16.0,17.0,16.0,17.0,-0.44366149757441475,-0.2037704433059011,-0.1696686469908928,-0.10059785093789876,-0.6049029171731035,-0.5652131427155537,-0.2944381876301958,-0.3002146813412462,-0.5084768920788495,-0.2987772963069266,-0.1124051912559365,-0.11905999299568948,-0.4369018341567873,-0.1569956257896452,-0.252234067289712,-0.27353578629536496,-0.35511012413768567,-0.4083665218256705,-0.3040903256940163,-0.610710053745125,-0.257842229845233,-0.15021955433535986,-0.22500736339276747,-0.523889998502428,-0.38219490483525664,-0.34409201278717444,-0.05352974040570631,-0.3194668463690882,-0.337577097893558,-0.11398715068656999,0.09559862774455201,-0.09524689276949842,3
7.75,2.2,2.05,3.15,16.275,24.925,4.825,8.475,524.0,101.0,116.0,174.0,1053.0,1690.0,306.0,546.0,17.0,10.0,11.0,12.0,21.0,22.0,20.0,15.0,-0.3634872770901648,-0.18559817494781966,-0.3220495155713107,-0.05835391828406456,-0.209626564660602,-0.5019501592987474,-0.2889130435263113,-0.3799068606432666,-0.3393845859762677,-0.38702834988282514,-0.38750002331699035,-0.3432737108195243,-0.4069480401070426,-0.5516749186497365,-0.4709451176730374,-0.5636423381182547,-0.5121498529400299,-0.14333606739228014,-0.4326692310535312,-0.38052733815181145,-0.6173769118925131,-0.3791223248035812,-0.5676261500843645,-0.5799717290591001,-0.3831254104736125,-0.4773220522861165,-0.17815654783759466,-0.347928246580038,-0.1614952233256093,-0.12567975483854485,0.004931578318713161,-0.47747553805004567,3
5.325,1.925,1.85,2.25,15.85,23.275,5.775,7.9,353.0,96.0,113.0,144.0,1068.0,1500.0,391.0,438.0,16.0,8.0,19.0,18.0,19.0,16.0,19.0,13.0,-0.29439958196963206,-0.14916151267864367,-0.12401414904848519,-0.03304635829686552,-0.36579040245829736,-0.37719671651480263,-0.4553455550002908,-0.39705915092419536,-0.5672617337014422,-0.35514184808977733,-0.463122423447929,-0.34371005451822656,-0.32421011081898277,-0.31655408379792255,-0.020127606687729612,0.05156509512222271,-0.6534923083091877,-0.4258382095779233,-0.3451664993287967,-0.12669012341369518,-0.4198467806055579,-0.06840156234205338,-0.1996720570667153,-0.28231309472965194,-0.6289522247791619,-0.3326473440247423,-0.28659693578061457,-0.28714816067511584,-0.24245313967782733,-0.3409926931522014,-0.27276199544469537,-0.2895580293789858,3
5.05,2.1,1.825,2.025,10.825,24.9,4.625,7.075,331.0,112.0,107.0,115.0,693.0,1586.0,296.0,400.0,16.0,14.0,12.0,8.0,20.0,16.0,15.0,15.0,-0.24408414714100252,-0.1974219284133762,0.012299695217695831,-0.1680879628923401,-0.2694986383439371,-0.06483133423657698,-0.26953963924200564,-0.09914574696810367,-0.22566115928145808,-0.0010655637428424064,-0.14165707339761813,0.020051209638069244,-0.08993884701287186,-0.14802781893665623,0.06628436162056718,0.057819007225449845,-0.45183842385349565,-0.3015162947861577,-0.16147346220617143,0.09059619346110323,-0.4127752034548914,-0.284457946204744,-0.11447742806515146,-0.17086267060400379,-0.38009078432937765,-0.19366330603860996,-0.2724843521483427,-0.30634961425837826,-0.3071329612231257,-0.4484434869309575,-0.33971103356418314,-0.2412679123570787,3
4.35,1.9,1.925,2.625,12.425,26.2,4.975,6.475,264.0,100.0,103.0,165.0,773.0,1626.0,324.0,370.0,16.0,16.0,11.0,17.0,19.0,17.0,21.0,14.0,-0.26509288070618264,-0.23637296852078105,-0.1417731490697386,-0.11873529946970511,-0.15703487206952946,-0.1412995648249006,0.025814830900992118,0.0462972485412879,-0.084741626644605,-0.22249160136864643,0.04219240666453316,-0.34454580182890326,-0.20259764290307888,-0.09986517186143568,0.09846468295762804,-0.418228761361932,-0.31626021777064994,-0.3909552569136073,-0.23481598149641758,-0.09183631968083053,-0.5340873574437325,-0.6031337313191188,-0.27247174495960547,-0.3801776751775243,-0.4326487615840614,-0.25786927047147384,-0.04021649266117472,-0.15214441911683554,-0.2788586766597269,-0.32714290524520484,-0.23040057997977179,-0.09014628837055773,3
5.45,1.625,2.25,2.925,14.775,24.35,5.0,7.025,319.0,89.0,142.0,190.0,988.0,1528.0,333.0,435.0,16.0,13.0,21.0,19.0,20.0,22.0,21.0,18.0,-0.1321672395601612,-0.30092017693824574,-0.27664211336406863,0.018716640507599355,-0.12649202272957524,-0.02784638562164145,-0.04514291430720023,-0.1511963162602906,-0.24345089672925377,-0.08215934729298383,-0.17378264919483866,-0.41119610686512076,-0.5741474115722488,-0.3781710893450989,-0.2828634128029035,-0.1322191453482934,-0.4266893866527399,-0.22832488313450316,-0.12263594678326688,-0.27525364799175867,-0.5311528433185837,-0.24539673063493742,-0.12432595290429757,-0.02113211176212176,-0.6026200612292364,-0.2947997030199302,-0.16025847977230429,-0.2893416090453639,-0.4961108150240447,-0.31761799231938015,-0.2521778526996136,-0.29134996798632334,3
5.35,2.375,2.65,3.675,16.55,24.6,5.2,8.075,292.0,141.0,165.0,200.0,1115.0,1477.0,277.0,517.0,11.0,14.0,14.0,12.0,20.0,17.0,16.0,15.0,0.10197064099275772,-0.17259046917784768,-0.20577956401403893,-0.2580541743056866,-0.2542923736486217,-0.04695428514464215,-0.13974678186851716,-0.35414475845710797,-0.3817086667263845,-0.4838287894222915,-0.30817910566946066,-0.3993254268277788,-0.31500547098371523,-0.3041092151337902,-0.2810739675062651,-0.31230397095900564,-0.6574141328860345,-0.4126881544376243,-0.21652677020116917,-0.1579399581158066,-0.24324317462446174,-0.25724945809456434,-0.29013338963206775,-0.2106531616772017,-0.2439790838468246,-0.22401903894090733,-0.1925343522535245,-0.08941101704171468,-0.3654192252916994,0.05834051913267163,-0.23847484355831497,-0.2913700226444843,3
3.25,2.05,2.575,2.6,13.275,19.475,5.25,5.6,192.0,96.0,142.0,144.0,887.0,1198.0,311.0,388.0,16.0,6.0,11.0,13.0,19.0,17.0,17.0,16.0,-0.05501971501281373,0.00615306359171103,-0.1375313934093078,0.021044056837090548,-0.12214576750251653,-0.006254143842498074,-0.08540038198141697,-0.388613022672672,-0.22718016988560194,-0.08183929503615468,-0.291218366621835,-0.48948919729521073,-0.3043287961256257,-0.32096523997257953,-0.3127934538630928,-0.46991232380117676,-0.5890171476635512,-0.4502883371827156,-0.11470140171490278,-0.18263047679635255,-0.2585153125634658,-0.0583676010338583,-0.08874629216814184,-0.34802070511305794,-0.4610569323733722,-0.1599327399180653,-0.12192870551028633,-0.33045081950500876,-0.27934718394269004,-0.1999341089600433,-0.3412057849586154,-0.020541730562975896,3
4.225,2.5,3.075,3.4,11.875,19.35,5.8,7.375,254.0,135.0,195.0,200.0,729.0,1136.0,325.0,440.0,15.0,10.0,14.0,10.0,14.0,14.0,13.0,15.0,-0.031609259372222184,0.0550620212445084,-0.035123084035991924,-0.31607338454539347,-0.18990679134306876,-0.220558325133728,-0.38819827002648233,-0.23231727094177637,-0.2515472441251968,-0.15937846778747916,-0.38539708472896533,-0.26874075974853867,-0.17145585356165496,-0.27478981238769873,-0.362260737950704,-0.15991121927936602,-0.4323677789216928,-0.271259573520031,-0.4389918028035924,-0.18660958162421576,-0.16676291548097666,-0.1716383138574132,-0.3156156738756807,-0.18688116869704605,-0.10265980262587218,-0.4724203971040118,-0.1652551105328542,-0.32025214288856674,-0.3219644892841647,-0.305796082476646,-0.2980324618573063,-0.20265104328432418,3
5.4,1.65,2.15,3.425,14.175,28.25,4.425,6.9,385.0,77.0,124.0,219.0,926.0,1846.0,275.0,444.0,22.0,13.0,14.0,18.0,20.0,21.0,19.0,19.0,-0.47122440741005134,-0.12959084751479363,-0.42091608873444236,-0.21039505779722634,0.07002745049867186,-0.17324289593517614,-0.06724080177117524,0.0712273572289771,-0.24364345485973524,-0.12238862247396967,-0.11891682258661904,-0.17259103740705461,-0.39994233950275204,-0.22908580024199773,-0.3763960797241706,-0.25904103989722893,-0.5212811633915823,-0.22012882006631418,-0.5418636915858349,-0.42684732425135724,-0.5582022327965017,-0.3067865794575123,-0.15957522471793456,-0.1565736782370794,-0.42915934206362316,-0.3511534240041527,-0.24432561457782073,-0.18730055969662843,-0.5363051068902872,-0.4587722254278354,-0.27733249845300534,-0.36835703918800816,3
6.8,2.225,2.225,3.3,16.2,31.8,4.85,7.35,495.0,129.0,131.0,176.0,946.0,2002.0,263.0,493.0,20.0,15.0,15.0,17.0,15.0,14.0,15.0,13.0,-0.3498567516353442,0.08490384428353188,0.17227060705457042,-0.23910852164318644,-0.2853262917324527,-0.23961494018458263,-0.22985546977435267,-0.08646712008754226,-0.3174702273035177,-0.47763650007527597,-0.3047120474503324,-0.011169142794185407,-0.20224793616452827,-0.39129293795628384,-0.38018005525078175,-0.13012953628975776,-0.3201933349429479,-0.35559395576927455,-0.3810208921969733,-0.15356765350288384,-0.49440537162733333,-0.45958058368912746,-0.36612180824902507,-0.1446470433610769,-0.25681772032965977,-0.3086604798292701,-0.22106748727393025,0.024529557815164516,-0.3815345960387616,-0.0771922445736728,0.04532674233267602,-0.07352557336183425,3
6.0,2.1,2.125,3.1,14.9,31.475,4.575,8.325,404.0,121.0,114.0,180.0,942.0,2112.0,310.0,560.0,21.0,13.0,16.0,16.0,14.0,20.0,17.0,19.0,-0.43148389560778566,-0.1329170601628361,0.31819258596221695,-0.0007426311901667418,-0.2706647303209643,-0.12810383071286927,0.09143627497579034,-0.02094729891222518,-0.35131750218489144,-0.2648837784833496,-0.16012623266887654,0.043045421162359494,-0.43628088258047343,-0.4175299072647555,-0.28536919143752876,-0.17882335103434752,-0.3347419009407718,-0.19399600062806044,0.047679604992192766,-0.12073814177200909,-0.744320135906312,-0.44610273234182624,-0.20544015821482614,-0.17907901156141703,-0.6264810523328578,-0.3389851408308781,-0.14782229792617188,-0.08147962960006451,-0.4208015961097944,-0.25933940634861746,-0.20418571142151676,-0.2322849563362881,3
4.1,2.325,2.225,2.925,11.275,23.95,5.05,8.025,267.0,148.0,129.0,168.0,703.0,1620.0,310.0,520.0,16.0,17.0,14.0,14.0,20.0,20.0,13.0,17.0,-0.3680616054274878,-0.12465383913501979,-0.0730397647719513,-0.0031948238488365968,-0.4219413841580956,-0.3519173259750271,-0.12393119112510585,-0.4647164281765494,-0.3477091047672328,-0.3743445515176935,-0.1871871439706999,-0.3289947243839185,-0.3784245186202571,-0.4535016456458341,-0.0703304749136908,-0.1545616524698172,-0.41972866896978295,-0.40873916886570777,-0.13900326293312446,-0.20785378811271052,-0.38256518277050405,-0.3275592136437432,-0.03463243147546425,-0.25851840751358324,-0.4556515875816532,-0.45355072204065466,-0.4488344451003774,-0.35458460759114563,-0.33603635703928053,-0.39299052418202474,-0.10416553819563569,-0.3246769796304188,3
4.225,2.075,2.425,3.1,10.25,20.2,4.55,7.775,296.0,111.0,123.0,159.0,652.0,1239.0,275.0,510.0,19.0,12.0,12.0,16.0,16.0,18.0,14.0,18.0,-0.4291618193375537,-0.26259343186612394,-0.12305438377611155,-0.193988445612471,-0.10923888595996344,-0.3541577290631751,-0.04996012090385491,-0.2238058031491779,-0.27649503873604314,-0.6728429384947251,-0.3386634985206762,-0.2730706356801588,-0.22872281330169916,-0.36685314654435236,-0.22518978379694693,-0.3917982682029696,-0.40402311522640266,-0.204769289679395,-0.16048080272618875,-0.015638132719660646,-0.4390855022367793,-0.3873436177592922,-0.24210607101593154,-0.10326786171130076,-0.23066463778382323,-0.33715011900673036,0.03667301875527277,-0.3290267154818511,-0.4177340624287271,-0.3026395705489166,-0.06592497285498293,-0.05463092501560014,3
3.975,2.0,2.325,2.9,11.775,23.525,5.5,6.2,277.0,113.0,134.0,169.0,807.0,1543.0,346.0,380.0,16.0,16.0,16.0,16.0,21.0,22.0,20.0,15.0,-0.23457329870047872,-0.0028912762312260213,-0.16282393249668947,-0.4435652392910048,-0.3314785009769424,-0.22861339361493616,-0.3451898727276021,-0.3342258285976041,-0.42947288249062376,-0.3115703441861885,-0.45690034084777914,-0.23044146853920497,-0.40833278696374814,-0.28470145772873506,-0.33808193467063535,-0.3079087348328028,-0.5944769311666127,-0.34194024570517384,-0.2168190130843309,0.026545937854302027,-0.5808412693694304,-0.23604498953331857,-0.09412390822505085,-0.16491911214174884,-0.5277847717562018,-0.12958213361652143,-0.2013523760696836,-0.36049469292703096,-0.22061290478040044,0.0737197115752492,0.1680421685974016,-0.17814390427615096,3
3.625,1.7,1.6,2.65,12.35,21.525,3.925,7.675,238.0,94.0,106.0,167.0,881.0,1540.0,236.0,524.0,20.0,12.0,10.0,14.0,23.0,23.0,12.0,23.0,-0.3312257444345556,-0.07209631567985977,-0.18454467496208057,-0.22701535907978893,-0.24586189037297287,-0.20107206833735877,-0.2926276344373553,-0.31520373200139773,-0.2981351349599903,-0.04300594674741252,-0.31533085835189567,-0.1953620908878915,-0.44367614811099854,-0.14617489290205024,-0.6322533038879653,-0.2633583986263854,-0.4674189965465598,-0.10051366656786644,-0.198982756233547,-0.25123795053958836,-0.5516539583601819,-0.1037851650364247,-0.3251706044513831,-0.44453978001337335,-0.23331456855676141,0.08647200832737091,-0.22838604801015072,-0.13279249859430203,-0.4004899187479025,-0.033101355662596005,-0.3445606407449287,-0.2068825247205958,3
4.85,2.2,2.325,2.85,12.75,24.425,4.3,5.35,280.0,97.0,107.0,164.0,848.0,1587.0,242.0,327.0,13.0,7.0,6.0,16.0,19.0,17.0,14.0,17.0,-0.325847058884674,-0.34261355276952704,-0.2819873474799861,-0.3903553895398315,0.21192666273575217,-0.23010409104848512,-0.338065571415368,-0.04058912263501712,0.2195231227467087,-0.27970831830731646,-0.27616032786545214,-0.13777601139894566,-0.22770566946132068,-0.19844874959453734,-0.373523438375113,-0.32870639777509725,-0.6454489780013762,-0.42883445941157156,-0.5721876805101985,-0.43104469759183034,-0.5889921353940311,-0.3653995009805898,-0.38446557084448796,-0.3272538464782887,-0.194442835324965,-0.026891847373205206,-0.11900245364456759,-0.09935634600296711,-0.5535382286015715,-0.2659347784826802,-0.38994192617095175,-0.3381476862257048,3
4.975,2.175,2.225,3.425,10.825,19.55,5.025,5.325,265.0,100.0,101.0,204.0,719.0,1277.0,306.0,333.0,13.0,11.0,14.0,13.0,18.0,14.0,16.0,13.0,-0.20594701794267317,-0.055925184839570964,-0.21520342617322544,-0.3287534797544795,0.17168061696646875,-0.22296012232395032,-0.1870880423554996,-0.13221023701939316,0.2521313157545739,-0.28635294160712205,-0.027738385654928272,-0.15018430253888007,-0.27452106769053963,-0.1493804132782685,-0.21160300835292248,-0.2497947502531401,-0.6306536547247947,-0.3693928062651686,-0.44860110283325355,-0.48439016204651936,-0.5236045285990971,-0.27758232313388287,-0.4633582859479968,-0.47471988238314133,-0.35574060723366363,-0.06325591325821092,-0.3363157907444268,-0.31448575522817385,-0.42261997505693233,-0.27078511860083776,-0.2684317758825078,-0.29848353187215765,3
4.9,1.825,2.075,2.375,6.975,17.1,4.5,6.775,299.0,97.0,122.0,123.0,464.0,1063.0,295.0,427.0,15.0,14.0,14.0,9.0,15.0,19.0,17.0,21.0,-0.12021505003894657,-0.10944661750934234,-0.04907629026659351,-0.09727766689113888,-0.05415093553998111,-0.2731634785944922,-0.12511761218415565,-0.4203615881183057,-0.1916065537429687,0.020200906705428415,0.10849567862786605,-0.2214310413684747,-0.3062227893084772,-0.647104977642659,-0.2557344521095109,-0.4381188795865573,-0.3256573974481608,-0.23685663173016003,-0.0858528650521854,-0.44576368042487785,-0.19472785825034283,-0.2853950808417541,0.027397454504543357,-0.3270707249036743,-0.4489084714561782,-0.12222531410272623,-0.2808610043533948,-0.2582105584560381,-0.2746817129185828,-0.04086601019397895,-0.27491002842576084,-0.01589724171772502,3
6.5,1.825,1.65,2.375,9.475,17.775,4.15,7.325,424.0,98.0,86.0,132.0,546.0,1104.0,254.0,492.0,15.0,12.0,8.0,14.0,19.0,17.0,13.0,13.0,-0.2280726777087381,-0.05578760662206203,0.08670836056782391,-0.07342601758156082,-0.08244566472213544,-0.1642467454296182,-0.20673935012838315,-0.22852577696999324,-0.11478661424738203,0.12002384470768257,0.16067395267221207,-0.05779793335234355,-0.0625587874723026,-0.19004177350373386,0.1300980862891759,-0.37045977758389864,-0.2719523265744428,-0.35004229318507346,-0.10901960446176381,-0.5047632375343223,-0.238945153787138,-0.33402913389267863,-0.12429768347278206,-0.4803137966306999,-0.4710856001798179,-0.2546494082125409,-0.44071762931966674,-0.35542392827598046,-0.22358057190504432,0.023896536584610103,-0.44517560560054104,-0.11993438976855039,3
4.525,1.525,1.875,2.3,10.7,21.375,4.75,5.2,252.0,77.0,111.0,143.0,717.0,1473.0,329.0,312.0,12.0,8.0,12.0,18.0,19.0,18.0,22.0,16.0,-0.307135672762049,-0.10842521911327781,-0.19459927924451967,-0.03212949786320713,-0.03361156713705408,-0.03106941047780513,-0.4594256981826034,-0.02844641225190054,-0.37199647012726317,0.12484332937736399,0.19678597908677584,0.2892726024941729,-0.47875829390233954,-0.3414317984662259,-0.16039473061127185,-0.259927401863498,-0.6752982654504298,-0.5071052706776287,-0.40224893649613497,-0.4794879020887411,-0.5511963787742822,-0.09188354801094738,-0.2900771330858303,-0.4758977256167966,-0.6970511008127981,-0.09694370720885508,-0.36038308737334496,-0.34071134328202585,-0.3065326159735885,-0.16385926675422682,-0.19997698551563112,-0.14520050291676523,3
4.15,2.025,2.05,2.4,12.225,25.025,3.925,6.45,265.0,112.0,125.0,137.0,897.0,1676.0,254.0,399.0,15.0,12.0,15.0,15.0,25.0,19.0,17.0,16.0,-0.3976178425286055,-0.3430480598539004,-0.35252635900296403,-0.16203070518662616,-0.4035129755232359,-0.2540396889810009,-0.5250950016610031,-0.5859937709612376,-0.27856119151582187,-0.19131349409650247,-0.17245693473931797,-0.42939676263452076,-0.422631955878526,-0.18582316026761445,-0.42896306686518826,-0.2297883303716664,-0.7963173353486168,-0.4815777698363917,-0.6370350348900817,-0.39182433584464166,-0.770799948052482,-0.4591439446632841,-0.45922265808861973,-0.2229621870307408,-0.5013556024717827,-0.2605184596475729,-0.17126299562908848,-0.08434254159758313,-0.4841474055936417,-0.2252728229913853,0.020125056340752123,0.01583085569801231,3
4.775,1.925,1.925,2.125,17.025,30.075,3.7,7.15,288.0,92.0,112.0,139.0,1244.0,1904.0,215.0,424.0,15.0,10.0,13.0,18.0,20.0,17.0,11.0,14.0,-0.29812367150831476,-0.11017091326370845,-0.4110941673940577,-0.37068558570297955,-0.022404514165046623,-0.23715456200535817,-0.24433374768630625,-0.22453602048882307,0.1717957335889933,-0.458323588286016,0.19183661714644523,-0.4108958030954788,-0.3429062195930788,-0.11463134960277828,-0.21054751404874733,0.03270441945821514,-0.8680910046427163,-0.513990855841886,-0.36462826510561264,-0.24844817725507704,-0.6259173718737786,-0.45957762189995427,-0.4214232960900832,-0.29283343983692245,-0.42724623814614765,-0.2754432186481518,-0.4756029440141044,-0.27667300202131434,-0.2777101555153187,-0.31798989968501445,-0.2151141117622083,-0.2849370451464963,3
4.575,1.975,2.0,2.175,8.6,17.725,3.15,5.85,312.0,86.0,94.0,123.0,636.0,1007.0,188.0,374.0,14.0,6.0,10.0,15.0,20.0,17.0,18.0,20.0,-0.6146918847865663,-0.5028336070969974,-0.44855715208226893,-0.3143150536182602,0.1523067539452,-0.3521069207886521,-0.13312159387971134,-0.32909189016184387,0.1120549427994306,-0.20547604383487916,-0.22394992473350733,-0.30342016178384834,-0.3430111306763973,-0.21089743605636607,-0.3901369667796149,-0.3108847690219743,-0.7055595115199227,-0.3053431451790075,-0.21702236377365774,-0.13489380598479256,-0.47754700703013764,-0.6937640110196268,-0.48625937957342424,-0.3940354758938023,-0.28941990747971363,-0.18585211209231245,-0.3635536749984371,-0.28594793377162436,-0.2429046299882314,-0.3060175719833819,0.06538491853229608,-0.21714753722766253,3
6.675,3.025,2.575,2.7,9.875,20.45,5.925,7.8,369.0,152.0,135.0,152.0,583.0,1155.0,287.0,492.0,13.0,11.0,9.0,11.0,11.0,13.0,13.0,17.0,-0.2091964663159856,-0.2450550353018596,-0.3038599244655374,-0.27057325743876715,0.026208775084457788,-0.23695695862080673,-0.05541805607232139,-0.3200260710312834,-0.003353553286413724,-0.08822290154762404,-0.13787120611654805,-0.18893032485653072,-0.1246218596480112,0.044061241607045394,-0.01249665927765198,-0.11529921927942066,-0.27622383959506236,-0.44519754399597466,-0.35456609681037027,-0.1705251628407913,-0.2180767758433375,-0.3496745438258125,-0.31454546943170114,-0.17959368291712569,0.12604246811615594,-0.27091965758022246,-0.2986131038009947,-0.09953493094955253,-0.20664119333075315,-0.35108115889109454,-0.2073131579823121,-0.376505172808073,3
6.325,2.025,1.675,2.65,10.5,24.6,4.75,8.45,347.0,91.0,77.0,147.0,606.0,1490.0,291.0,562.0,19.0,8.0,10.0,10.0,18.0,15.0,18.0,22.0,-0.2197440536473951,-0.19601252149696644,0.03897215433744257,-0.12496875163108885,0.19542557339101937,-0.11233860110342687,-0.05779579426554494,-0.3730647107056135,0.3007474285705048,-0.19833706490972805,-0.054754249097146386,-0.1472506844471817,-0.030511830467771527,-0.25716808743023534,-0.08553248374378548,-0.17186131927583642,-0.17616952134158279,-0.3510607882373029,-0.11563138679759127,-0.13597046116306036,-0.4643171341304694,-0.5487699670177277,-0.21820051732568102,-0.2957847457000616,-0.29131834695599346,-0.48130303547295195,-0.1790604770999794,-0.23381915953307822,-0.5358334925366366,-0.38082204161174865,-0.39224983522254825,-0.31906484235881144,3
4.8,2.075,2.0,2.45,10.375,23.1,4.975,6.675,316.0,88.0,107.0,138.0,698.0,1574.0,283.0,442.0,15.0,9.0,13.0,15.0,20.0,17.0,11.0,15.0,-0.3625753576325281,-0.20961823799192944,0.06550904580540166,0.000445669677046426,0.09832553832816951,0.13021121051802031,-0.1518852122762439,-0.4674978198269692,-0.013507649139898395,0.08562998461797992,-0.17557369889357008,-0.33315726192003114,0.13601771658989498,-0.05619344841753596,0.13081078455895023,-0.501367080964448,-0.5486769071359757,-0.5435320114823903,-0.3021344938178682,-0.3381823673111677,-0.6155202883217972,-0.4248623968683492,-0.271972697400779,-0.506922305197514,-0.13614294646126462,-0.21398258023961586,-0.09930821018483736,-0.4494735492976383,-0.4229381774668266,-0.2751203776641974,-0.38379457574777986,-0.21698443203053172,3
5.9,1.825,1.725,2.725,9.5,16.375,4.225,7.0,344.0,59.0,92.0,155.0,605.0,1021.0,233.0,459.0,18.0,6.0,12.0,14.0,17.0,15.0,14.0,18.0,-0.17959151232033382,-0.19434872976085774,0.10053199832567956,-0.03211630620570321,0.2422346069973592,0.13580412332818984,-0.18909287149356283,-0.05955938271652097,0.0330948338893037,0.007595430339587612,-0.2919859965328628,-0.09482324150688407,-0.07258882027219923,0.026366237631995377,-0.06887858769035834,-0.1524759624393438,-0.5660719222802283,-0.4049528447206944,-0.5859556419789225,-0.3815806801418689,-0.3782052839672516,-0.13254752097347458,-0.2496505203958979,-0.12902587691811646,-0.06048614875909323,-0.1149825931393895,-0.10966752477418226,-0.20963617340989177,-0.27911888413399355,0.31224984939756545,0.14634714385395675,-0.05648604196352722,3
6.025,2.15,1.925,2.4,7.625,21.625,4.05,7.45,379.0,107.0,86.0,136.0,528.0,1338.0,239.0,477.0,18.0,13.0,11.0,14.0,14.0,16.0,12.0,17.0,-0.2682819671280046,-0.4134996023021187,-0.11536549582123255,-0.4334317606889647,-0.1553620122775972,-0.2923327182374516,-0.07617788391423755,-0.3993276075343289,0.05047079630503287,-0.2861066204189833,-0.06722690353909641,-0.4446992914116413,-0.22074091229325635,-0.17427826373869498,-0.28727147661481417,-0.4190139661448935,-0.7723630718538241,-0.49555887531906456,-0.33933486813906244,-0.20362364695448987,-0.4618811587726525,-0.37790485281539354,-0.4491415195785054,-0.23502595518378555,-0.27015704089267445,-0.13773988947020166,-0.19912185054756198,-0.2806989391926888,-0.14514497761689485,-0.25210774234402844,-0.21456577321429696,-0.2810660899510246,3
3.75,1.9,2.1,2.35,9.625,21.3,4.325,6.6,207.0,88.0,82.0,133.0,646.0,1485.0,265.0,387.0,13.0,11.0,9.0,10.0,15.0,22.0,17.0,13.0,-0.2669306841216902,-0.17105603595461882,-0.2008226716395698,-0.3066757858359535,-0.029103410845046418,-0.3776488158549909,-0.16937953646090043,-0.5218199093213973,0.40350441202951826,-0.4468694020509066,-0.031958521107168326,-0.1575363188858432,-0.009309882761354693,0.02409711204771365,-0.43671871246951727,-0.18493404378324788,-0.5664684495322017,-0.3741604499906682,-0.2694746455557178,-0.2725016760893484,-0.45949545938505815,-0.12421964129252287,-0.1540688541516558,-0.3777193164111532,-0.3089599954104451,-0.28848872709020806,-0.34095104543896365,-0.39879018544376854,-0.03430399423318695,-0.5371544511045201,-0.15145511218568233,-0.27822386642098457,3
6.325,1.65,2.025,2.525,10.9,19.775,3.525,6.35,399.0,83.0,94.0,140.0,742.0,1254.0,205.0,398.0,17.0,14.0,10.0,12.0,19.0,15.0,11.0,17.0,-0.5233663562789999,-0.47959664911413613,-0.2715641892914342,-0.17257157695007494,-0.10423185500671114,-0.16260137187261592,-0.08524567024930185,-0.23576609259899675,0.1494949380708315,-0.38186754907254367,0.023087250868253622,-0.5057155893574035,-0.10346928460526184,-0.1840066173073462,0.03183993839859995,-0.2579338550301907,-0.5399645846514406,-0.3534583702749996,-0.20671542113273722,-0.12182405592198264,-0.2891903177052969,-0.22928914086937285,-0.04788202970456906,-0.3203584755561095,-0.26194201836495135,-0.16285775670082694,-0.24889622941007009,-0.22716635865737644,-0.5638489592063983,-0.2942068253434065,-0.3976157687924344,-0.08264480214807866,3
4.25,1.625,2.4,2.875,9.125,17.325,4.65,5.825,245.0,81.0,130.0,155.0,611.0,1173.0,287.0,345.0,15.0,8.0,12.0,12.0,19.0,19.0,18.0,15.0,-0.24852290306200958,-0.1177465147162762,-0.4156409483382081,-0.3275114629355997,-0.16076630420437363,-0.15864417376736692,-0.458895897226334,-0.3978997872683167,-0.08419978369564736,-0.4786180415724166,-0.3186079277165205,-0.422556709460086,-0.18241592436227702,-0.399138628247851,-0.42852340821155444,-0.28183810254750585,-0.48849841085691303,-0.3396443962478246,-0.22959917849392067,-0.3532168640933898,-0.8473714198223298,-0.49098286230715377,-0.20759335580398153,-0.16775969089049536,-0.5574559987440393,-0.23409717544172864,-0.5279419470195563,-0.5094775696199813,-0.22912618540693555,-0.3025667066850948,-0.2519042747565036,-0.43778574203511156,3
6.0,1.8,2.275,2.975,9.525,16.45,4.875,6.825,359.0,92.0,114.0,141.0,630.0,1009.0,325.0,414.0,15.0,9.0,13.0,7.0,19.0,14.0,19.0,14.0,-0.17530894160611588,-0.13037959432794255,-0.3027832637971974,-0.170276673044346,-0.019412942434438075,0.09409152267352533,-0.14370013872022375,-0.2634854762307387,-0.13427127574036007,-0.3044841468565753,-0.3787316767057799,-0.23182793150323036,0.04125540681574221,-0.37609437103561477,-0.27454882645369405,-0.29162303052084865,-0.3961314496668488,-0.277222124177182,-0.27941746974875475,-0.08845535269176301,-0.4811258057725889,-0.18876883851645673,-0.24024600483761235,-0.19794439502645583,-0.4392467782031853,-0.22818899649808053,-0.32878473415746123,-0.39563888637587574,-0.21732273977010333,-0.3778122022719068,-0.2549950547248766,-0.3528182507259554,3
6.05,2.025,2.0,2.45,8.8,16.8,4.1,7.525,373.0,129.0,122.0,135.0,609.0,1078.0,242.0,533.0,15.0,13.0,15.0,13.0,20.0,19.0,15.0,18.0,-0.35294477155584864,-0.26433177274022557,-0.3563844587171649,-0.38140296170267685,-0.3864641199493852,-0.10946311343326308,-0.2479310062931571,-0.41782014852045446,-0.20249112377560072,-0.2424066886440736,-0.16359938974795205,-0.31263138033478155,-0.08755065094454119,-0.423301756607416,-0.226078723226874,-0.09174701983485571,-0.6369733533964201,-0.35271832801050074,-0.40602060121505934,-0.1433341148661652,-0.5297339311615636,-0.13969917173678292,-0.08811666114413969,-0.030434349401466936,-0.31304509480971576,-0.09959010296963221,-0.19499570112716486,-0.16635181960511664,-0.5592857445729139,-0.20084501059862947,-0.11155383482973517,-0.1608691466626575,3
4.65,1.85,2.2,2.2,8.775,16.525,4.35,7.5,316.0,120.0,115.0,124.0,546.0,1100.0,271.0,475.0,17.0,10.0,12.0,14.0,18.0,19.0,16.0,14.0,-0.35049208999883175,0.017348502427159768,0.02042462647856757,-0.18188936208234358,-0.26958502840209364,-0.10624004183199541,-0.1937946168270093,-0.1805180735936586,-0.27215356609007557,-0.5201045209088787,-0.4826917653378814,-0.3676704337455932,-0.22179232281967726,-0.5638529630157953,-0.2284314472672616,-0.4245366619397837,-0.9291882383223932,-1.0549765033274026,-0.761477804194837,-0.46310725034961064,-0.7498010309260158,-0.6479695860741289,-0.532763674459052,-0.37068901366826223,-0.43062041764926184,-0.2963789949609795,-0.48084324654101784,-0.22081187200843824,-0.30013118801371386,-0.053800147433901026,-0.03583318625869971,-0.3825217252894188,3
5.125,1.75,2.05,2.2,7.95,15.525,3.7,8.95,345.0,92.0,126.0,138.0,520.0,992.0,224.0,589.0,13.0,10.0,12.0,11.0,19.0,19.0,18.0,20.0,-0.30321186080778617,-0.04042289673077272,0.0060057109342336115,-0.3149449395162578,-0.1029108117130285,-0.16190142066127575,-0.2863311333489515,-0.40238477344032436,-0.19415068600007063,-0.20330274596525125,-0.26803378602846273,-0.5117965716557473,-0.2046247045370768,-0.2056363863096971,-0.0988543516758179,-0.28494435699345255,-0.5008072299798043,-0.5934506663842781,-0.19145530038016315,-0.23699363448206948,-0.4999096522610596,-0.4999500848461112,-0.13817667491139368,-0.1082894595955649,-0.5460298413382066,-0.7356022250539875,-0.4729282626213694,-0.5219021014821047,-0.42342124308902057,-0.34930259903947786,-0.09724988732500879,-0.30989235921820296,3
4.625,1.85,2.3,2.225,8.85,18.95,3.25,8.55,288.0,102.0,146.0,132.0,591.0,1172.0,203.0,562.0,18.0,14.0,14.0,15.0,21.0,18.0,16.0,18.0,-0.4021251824065091,-0.25127034173435625,-0.08071974171777499,-0.3473435358592009,-0.22690591184247882,-0.41225595554694605,-0.15348225087277553,-0.3167568034051058,-0.31542878255889284,-0.0026906479902784374,-0.3869505677142191,-0.3785895976545244,-0.2196902582061592,-0.3771220820209853,-0.12285654698194916,-0.3817895031383178,-0.5633134977062348,-0.3683317518425413,-0.35140552733723146,-0.08680737634749827,-0.4643242711371972,-0.38678980620841563,-0.3811741887376672,-0.4489431975122828,-0.38830881993854727,-0.19890123783541583,-0.3026789058086939,-0.41856320441252987,-0.4845602105866632,-0.3591847580079521,-0.23513110089654657,-0.2907302629549715,3
5.675,1.825,1.85,2.825,11.275,20.125,4.2,5.875,355.0,101.0,97.0,154.0,748.0,1292.0,271.0,347.0,17.0,12.0,12.0,15.0,19.0,17.0,16.0,18.0,-0.03122555939395428,-0.23669042206713567,-0.018582322290714555,-0.011202366765221761,-0.09703811299114555,-0.13376670242600558,0.003986989606691437,-0.06671247064897996,-0.1912576101766536,-0.05567253845785142,-0.10774035439408088,-0.23855596481653105,-0.2791930739389912,-0.1694628220539176,-0.2633274290105107,-0.2995749525808961,-0.444402378679713,-0.31469580652947354,-0.25157419441472506,-0.382279056765389,-0.3668710079492323,-0.14070518300171564,-0.21281657028929463,-0.20793263636616008,-0.5459631002248956,-0.2289196708135795,0.15284259338497563,-0.02890121919924492,-0.14033136401006882,-0.41469439357203375,-0.16392859053303208,-0.5168915910775989,3
6.05,1.45,1.525,2.075,13.5,20.975,4.1,7.05,406.0,71.0,86.0,117.0,938.0,1289.0,245.0,427.0,19.0,9.0,11.0,13.0,19.0,19.0,15.0,18.0,-0.3630350752021734,-0.33704434744069695,-0.32913711118168176,-0.3846323821463638,-0.022554150690458335,0.10245290848694996,-0.0012592756980096187,-0.22472020284818994,-0.1360859593921994,-0.13958214671224964,-0.1599524776270382,-0.16086406386730745,-0.23031894659940597,-0.15298959664271103,-0.31519611614458254,-0.1611420264508216,-0.7383530942836374,-0.5435857553932671,-0.44823707161777143,-0.47504508265461626,-0.4326959257843054,-0.09105081129442198,-0.3068084676217963,-0.18798442026564657,-0.5935200198041064,-0.43974492633382617,-0.320068571886211,-0.24864086012104272,-0.3679163476647026,-0.2525709498435793,-0.343992895139238,-0.20287707125649995,3
5.225,1.625,2.025,2.925,14.875,22.725,3.45,8.225,364.0,83.0,109.0,176.0,1038.0,1660.0,216.0,517.0,16.0,13.0,15.0,16.0,24.0,22.0,15.0,19.0,-0.5837725615519497,-0.35798270872131926,-0.0965224982445867,-0.13858729383087595,-0.09098929287603943,-0.2159363900228838,-0.10931986549537127,-0.21153400909496514,-0.35525181063924577,-0.19498259573272458,-0.1136004612664368,-0.12992595332252027,-0.5587860148823351,-0.29340998136241236,-0.3497065149493313,-0.3409932888616628,-0.7756927795995082,-0.520162897084093,-0.21201482326541046,-0.16924630993766746,-0.65758434414081,-0.2030312214843533,-0.2419734049526808,-0.27034138578479006,-0.3111750571471838,-0.14859534740853567,-0.09213172869551951,-0.1175382728432438,-0.3776563979313876,-0.21162208714042968,-0.48871607531075484,-0.19458567999852153,3
4.5,1.825,2.15,2.8,11.425,17.95,2.8,6.4,285.0,83.0,119.0,183.0,762.0,1185.0,168.0,411.0,14.0,12.0,16.0,18.0,20.0,16.0,14.0,16.0,-0.47973286900699197,-0.2911096893107577,-0.2776967776988386,-0.2398306265299526,0.17795262795053382,-0.1354166083309703,-0.09656278444678164,-0.14306595088069737,-0.18881471172946349,-0.02329444766944727,-0.3099291222989877,-0.2629053190943803,-0.5970937574144655,-0.371657484919863,-0.23982211909073262,-0.2616486610770945,-0.6937077970632662,-0.6273840747961967,-0.42180101912477536,-0.2544308117509412,-0.3829758009442307,-0.23042273532979166,0.08727588937679423,-0.12303035943092745,-0.31779320900263675,-0.35844597441785125,-0.3756098842448663,0.03618773009052449,-0.5582256438458529,-0.05545566021607721,-0.1283460155607439,-0.006908263391112464,3
5.675,2.0,2.175,2.5,12.15,23.275,4.725,7.85,305.0,94.0,114.0,167.0,883.0,1576.0,305.0,487.0,14.0,7.0,12.0,13.0,21.0,19.0,14.0,15.0,0.10653023055959891,-0.012073182395743067,-0.2193208677587434,-0.1754011986523215,0.032584788264290884,0.03871182529776197,-0.3373538550395981,-0.24633094646897344,-0.20323022286671136,-0.03479485974525374,-0.3289037038877826,-0.22439307710116677,-0.4486336414811338,-0.2789840286309186,-0.07184311299912848,-0.09068107404186579,-0.6668013102956166,-0.31228856914405384,-0.3042092537249357,-0.18052685764150206,-0.5462055382015496,-0.15875829130673097,0.06806398282184037,0.06764545713990446,-0.5874603471712805,-0.47489866361553573,-0.29413418441858546,-0.12575821172796914,-0.45967152777057013,-0.27318673333449006,-0.05209744411480759,0.13827617523058208,3
4.65,1.625,1.825,2.475,9.925,18.9,3.925,6.4,282.0,70.0,100.0,159.0,641.0,1249.0,246.0,398.0,13.0,7.0,9.0,15.0,17.0,14.0,12.0,17.0,-0.0541299549406219,-0.07117235101573656,-0.05416807104182289,0.08002427471419958,0.21098915807310606,-0.05225213080177016,-0.11327436037998276,-0.09287460191334011,-0.15736557189311848,-0.2333789820340241,-0.38135334921843766,-0.13697669578763852,-0.5628296383370751,-0.40872142770805286,-0.18904317412743382,-0.0302486659576699,-0.3964689310454063,-0.24289201621377393,-0.33200458120100634,-0.1714382523749771,-0.5746401683245985,-0.24454204945736072,-0.06852391335258437,0.1737435300442039,-0.25278358145797486,-0.28057584089736265,-0.1012991874038209,-0.11652119563506574,-0.23996982087086077,-0.050177550306162645,-0.08048629339288445,-0.2754415972926672,3
5.45,1.875,1.975,2.675,11.1,19.85,3.925,6.375,348.0,82.0,122.0,166.0,686.0,1194.0,250.0,421.0,16.0,12.0,13.0,16.0,20.0,19.0,16.0,19.0,-0.43460411247569514,-0.04016984108155965,-0.17665248783867096,-0.04966793199782667,-0.021060223927341932,-0.2789013294568247,-0.20875854630668936,-0.26114592853324703,-0.3912907412175214,-0.22024032758207704,-0.24482310127641635,-0.2782411240735357,-0.4448216338830908,-0.31251858965037405,-0.41269369485727275,-0.17624647753595202,-0.4593030913474869,-0.4783819359165369,-0.3213778005447429,-0.09568190206839913,-0.4073710935337954,-0.03896177605859574,0.06591402411582593,0.020902565002962493,-0.3041224815640986,-0.13178343125830166,-0.1132593277218223,-0.21005384764027596,-0.243084114153673,-0.2133328113884537,0.19976550094743942,-0.08057507164198005,3
4.6,1.65,1.475,1.95,10.35,20.525,3.7,4.75,274.0,80.0,81.0,123.0,556.0,1226.0,229.0,306.0,17.0,9.0,9.0,14.0,16.0,16.0,12.0,16.0,-0.1685087478198369,-0.08001815948294586,-0.0928368938183004,0.18897383310699553,-0.02417977309298327,-0.3576117576138656,-0.043596509554172755,-0.09793602511742705,-0.044660080491854645,-0.33417673277926696,-0.07198884959845524,-0.33376403687921913,-0.4658844347549502,-0.3818444963959962,-0.4842867830992425,-0.22303348201098513,-0.22193484424944568,-0.3530578115426159,-0.29724470085563254,0.06233514397599325,-0.584180602934448,-0.33050611492275017,-0.43317928946330736,-0.2711609912092976,-0.1107982188694274,-0.11885376996007808,0.12280551038585356,-0.0732179950740314,-0.1846030822548853,0.20681374555247603,-0.18169862413808763,-0.01641625544664037,3
4.35,1.625,1.825,2.475,10.675,22.575,4.5,7.9,270.0,91.0,106.0,149.0,634.0,1406.0,298.0,498.0,16.0,11.0,14.0,15.0,17.0,15.0,17.0,17.0,-0.48678830336247964,-0.027191527427663967,-0.17006748629392268,-0.26886452838103664,-0.38770291873219065,-0.4034874000594865,-0.1531197685114617,-0.018235472089801145,-0.21605347939374614,-0.19184523753645302,-0.11919926577213101,0.014993035586805996,-0.45974485132839127,-0.3636742890863865,-0.492374399305229,-0.1771923354171322,-0.437996249773536,-0.5975775890868799,-0.3479045155032046,-0.32424461788687814,-0.4600215808717059,-0.40444395018781854,-0.21953703716138318,-0.20929039300820887,-0.2553496669094396,-0.2534097502835344,0.060483184290939754,-0.24861486057235882,-0.5034865819674743,-0.19849045758446784,-0.13803353566591484,0.0582211651372319,3
4.525,1.325,1.95,3.125,11.3,23.2,3.975,5.65,303.0,76.0,114.0,200.0,782.0,1482.0,277.0,381.0,18.0,6.0,13.0,17.0,16.0,16.0,20.0,12.0,-0.3710404295589031,-0.01938161441805481,-0.2096646218570643,-0.12284985672154636,-0.12042270613869,0.12726371455488575,0.0009190256167860617,-0.20596280045963536,-0.24986343181569634,-0.2328730814224778,-0.03721711156473615,0.10398606274671784,-0.566476126928728,-0.326411276465612,-0.2862370077380447,-0.11823381596566568,-0.7292833873489714,-0.5086511056213329,-0.5380275564184379,-0.3482399098199145,-0.3937502381814696,-0.3034100747346999,-0.2567072829658829,-0.3358119008847463,-0.42922840098411896,-0.3608653040740628,-0.19472312790572097,-0.23236631140251746,-0.5464777392242194,-0.4595854000201619,-0.31732348780054465,-0.31721239362582515,3
4.225,1.7,2.2,2.9,10.725,20.925,3.6,7.15,248.0,106.0,122.0,153.0,663.0,1432.0,217.0,484.0,17.0,9.0,18.0,13.0,18.0,24.0,15.0,17.0,-0.2654276600971977,-0.05751379205757141,-0.24486002436766888,-0.31576249668371736,-0.3681799047951601,-0.20316920252778484,-0.14048948953780477,-0.24126201406245187,-0.31693332413878506,-0.15978609477255729,-0.08882462014460753,-0.2988377697055935,-0.3921181406194104,-0.3153898152939501,-0.3218476839020218,-0.20781039810006321,-0.38457375414336553,0.028182477198338638,-0.2303354057533306,-0.20946749818291943,-0.2911240469773489,0.2585570501203434,-0.21509833979218662,-0.23011543653571753,-0.2890378452056403,-0.18763027830305284,0.064735513225,-0.03315986151293983,-0.5768715455665506,-0.2999174822636227,-0.15590206412334143,-0.3081142453552318,3
5.8,1.55,1.8,2.35,8.525,21.65,3.875,8.225,387.0,97.0,101.0,123.0,506.0,1396.0,250.0,541.0,16.0,13.0,10.0,14.0,17.0,15.0,20.0,18.0,-0.3911701473558405,-0.23257527143625878,-0.12797841888198597,-0.28132795310156294,-0.33176832907710174,0.07789933149097956,-0.06720720978668857,-0.22568263776878342,-0.2926609513948863,0.03818700646921013,-0.32435396693025076,-0.33141835801315855,-0.13629687000766325,-0.31688107153974726,0.23529971845472186,-0.17322147231088109,-0.28460161958425995,-0.2431835082360344,-0.013141565433845676,0.13787494184045362,-0.6815309840256218,-0.6572720439416033,-0.43866063160942453,-0.15083300177414063,-0.6026528455024976,-0.3244519787751185,-0.2762902662918362,-0.19821436288981512,-0.2520365466586588,0.003574587688606956,-0.12973409688853177,0.017800627884397943,3
6.525,2.25,2.0,2.2,10.975,30.6,4.95,7.275,408.0,122.0,118.0,115.0,664.0,1936.0,314.0,446.0,19.0,13.0,14.0,13.0,16.0,18.0,16.0,12.0,-0.356591072858576,-0.2439243391067087,-0.007680494677415201,-0.24810253014318756,-0.20926385339429437,-0.01222373775994072,-0.1541334976371201,-0.3256401362084465,-0.40685509519701146,-0.08292075722739974,-0.35871758240585294,-0.5362493794752972,-0.09038027984186713,-0.23521028477593042,0.042543719321926673,-0.36192600613792764,-0.2804276235529816,-0.23412182456439154,-0.13626545629800632,-0.017678891549834607,-0.4625490104075813,-0.49715340737405894,-0.23389191318803135,-0.2386265581722513,-0.5113572474572277,-0.3676562415642171,-0.22281481711419324,-0.1826385051744458,-0.20538628346176482,0.22735542469733516,-0.11341044392065436,-0.21973665852675545,3
5.575,2.35,2.375,3.125,15.825,26.8,5.725,5.4,358.0,139.0,150.0,194.0,1107.0,1815.0,369.0,319.0,16.0,11.0,16.0,17.0,21.0,17.0,19.0,15.0,-0.310007323689779,-0.03234076074214001,-0.20719972801967299,-0.11196639983687108,-0.08170399825175104,-0.012123354376029316,0.06979928024945974,-0.4641414136075769,-0.2763400221238603,-0.10774692323699608,0.04676877957485014,-0.20138848995367536,-0.21864367413400565,-0.01082354162886748,-0.0732410512254523,-0.12938432643755307,-0.8265723333538711,-0.47060385175659497,-0.3964316463122951,-0.24774843413163858,-0.6141726941290175,-0.27175352939286673,-0.17292749780272854,-0.07066103338850743,-0.43518149883133406,0.035642062509672744,0.2277630099124063,-0.10496571536152119,-0.2867213636843343,-0.42650751815552296,-0.1420626085086894,-0.2233938722740706,3
4.475,2.1,2.275,2.525,10.975,26.225,5.975,7.725,258.0,133.0,131.0,144.0,729.0,1763.0,368.0,505.0,16.0,14.0,14.0,17.0,19.0,21.0,17.0,17.0,-0.059783945879317395,-0.18037478781450325,-0.006028476411144122,-0.36653009309160045,-0.23853283075950663,-0.12241549194014009,0.2576287799723755,-0.2238059672433048,-0.19689016427806505,-0.14526519169331334,0.07119456266220053,-0.1363905565211759,-0.04260762403605512,-0.20380867884849382,0.07365160610885195,-0.17387186364020635,-0.6646773147730993,-0.5622341949455311,-0.2472794126243256,-0.2894008666868517,-0.8514087182431332,-0.7568367494990056,-0.3779365391427037,-0.12887370850770896,-0.5397486997626852,-0.4605440400584517,-0.07252765356911861,-0.19165768292354082,-0.6654422071113664,-0.33086114477557815,-0.16116826712212454,-0.19527864132256206,3
