0,1,2,3,4,5,6,7,8,9,10,11,12,13,14,15,16,17,18,19,20,21,22,23,24,25,26,27,28,29,30,31,32,33,34,35,36,37,38,39,40,41,42,43,44,45,46,47,48,49,50,51,52,53,54,55,Gesture
8.675,3.7,2.05,2.35,12.075,17.875,2.1,6.75,566.0,190.0,100.0,109.0,695.0,982.0,116.0,402.0,19.0,15.0,9.0,9.0,16.0,16.0,14.0,16.0,-0.38944203266694444,-0.052762157873768145,-0.15369015689087967,-0.11818257522940917,-0.3778794237922169,-0.4288515290878516,-0.2737083551156874,-0.2746814019895454,-0.15845884509616598,-0.2830161218704501,-0.2733618706712852,-0.3140556924487942,0.018536281439293107,-0.35971707472501935,-0.24485868786298062,-0.27353165670200996,-0.3765326824646741,-0.25728732211495464,-0.3771578800990425,-0.40309674637327564,-0.31381379459449515,-0.32576530009692717,-0.34451425885434317,-0.32888299338967103,-0.30994698650661273,-0.23573595901822864,-0.1422161347770341,-0.1375363530151792,-0.46276507352947505,-0.4588800957059799,-0.21855841987282973,-0.18769973373468102,1
11.225,3.15,2.425,2.15,12.55,14.6,1.9,6.45,741.0,182.0,141.0,135.0,657.0,683.0,123.0,437.0,19.0,15.0,13.0,13.0,14.0,12.0,17.0,19.0,-0.49890692741540105,-0.10980968701339691,0.16281196669733547,-0.12608211584602452,-0.31391477196363216,-0.4635810750379903,-0.36129874493655845,-0.5804536657511842,-0.47454628031883384,-0.39232520253364783,-0.1037401961796756,-0.2636851506612793,-0.22057521129186636,-0.2666012443850053,-0.2646045281268561,-0.2787010512546722,-0.31849769985396353,-0.22088962772626772,-0.3493183175592997,-0.471706042880877,0.07576228431740265,-0.3378460991824049,-0.2868238668844602,-0.2709395118914203,-0.6143493785343397,-0.5074868633632943,-0.13348575186557596,-0.06408755552594896,-0.5274587818239042,-0.19344075897693133,-0.14090154890084267,0.1281853031224049,1
10.85,3.05,2.15,2.075,12.475,16.075,2.175,7.125,690.0,201.0,102.0,105.0,744.0,942.0,135.0,448.0,16.0,14.0,12.0,10.0,18.0,14.0,17.0,16.0,-0.27437247095054995,-0.2320176776533764,0.16121800555720261,-0.20502119049299686,-0.5643707588501559,-0.14115919476926111,-0.12554356981601747,-0.24675398445356517,-0.09299900792010961,-0.08748540792109098,-0.12009872832206485,-0.19481160449949345,-0.12367491033777767,-0.26014232689995487,-0.2731381831050269,-0.2529245395641845,-0.45161199962782533,-0.05951628651376353,-0.28297003761842004,-0.24379351334755553,-0.35475114108566375,-0.023014664680623,-0.30869805371525916,-0.22164700464183376,-0.4639389821428313,-0.28926829060515963,-0.08810441790281523,-0.2170933982397496,-0.3295662368137247,-0.10851337329973063,-0.053131882434029644,-0.3971432779152367,1
14.075,3.875,1.775,2.2,15.9,23.075,2.375,5.575,858.0,217.0,99.0,126.0,1145.0,1607.0,142.0,359.0,16.0,13.0,8.0,14.0,21.0,17.0,14.0,21.0,-0.10084275897191511,-0.10603751710299283,0.035733864494559946,-0.3556082315436577,-0.373005354406226,-0.23543813395668522,-0.47797161273016,-0.33068674975619755,-0.16698451958428598,-0.0577452747794606,-0.10929041086870867,-0.07025564502113446,-0.24621370141234572,-0.39322746554862154,-0.35489656757225424,-0.24008039984561266,-0.5663789044431538,-0.10129582641340566,-0.2609205575454531,-0.25618098637172815,-0.4380313421743808,-0.07303874467228029,-0.38373491249257935,-0.3689227567027009,-0.25416836449346825,-0.018770109492009253,0.26928909864930944,-0.12238154379957009,-0.26563210044634616,0.17116997822098864,0.04406697252040608,-0.38471539944888283,1
9.75,2.9,2.05,2.3,12.875,15.7,2.325,5.725,578.0,155.0,121.0,126.0,939.0,1141.0,157.0,392.0,17.0,12.0,14.0,14.0,21.0,16.0,17.0,21.0,0.15082683938660155,0.026931981227320278,-0.2469983025941338,-0.074476433010215,-0.19562474913137434,-0.23922807101281987,-0.12715945015989122,-0.1763851094335712,-0.29934443885844364,-0.22752144649067152,-0.170826969900988,-0.057839963572999586,-0.4111576369580763,-0.39668445405040725,-0.37422117509967867,-0.11201761929882008,-0.6994816302190554,-0.24508179135826016,-0.013542588111777946,-0.04390754638007171,-0.6338750911074224,-0.32793396324044755,-0.20216680064993148,0.059142620659278444,-0.4079568505324105,-0.19609264992120123,-0.013601060266959095,-0.40208117767556584,-0.6828315778591476,-0.2534858298835956,-0.34055476772409526,-0.40595571423995847,1
11.45,2.9,1.875,3.025,10.275,10.75,1.8,5.825,726.0,186.0,96.0,205.0,674.0,676.0,110.0,381.0,13.0,16.0,13.0,17.0,18.0,18.0,9.0,20.0,-0.44818328924545475,-0.3240791750050392,-0.5361825369878004,-0.549667071438403,-0.39946356830766117,-0.29748288799428213,-0.2344409617046128,-0.4803479052777409,-0.12310241376861668,0.05040478854403923,-0.32891486900684214,-0.3573245787585627,-0.49221145348923817,-0.13075212961359045,-0.340280543914431,-0.49534859939924136,-0.5145385514670253,-0.20197897377569532,-0.2990386201740125,-0.305686300013574,-0.348479412425076,-0.08840252070868947,-0.42963040156303944,-0.3578432670877367,-0.20040670983467543,-0.18225677650109592,-0.11069827546134592,-0.0669129451675577,-0.488842301924235,-0.4799092183470951,-0.1325694919759651,-0.39202663450011727,1
8.375,3.4,2.375,3.6,18.3,18.875,1.775,5.775,525.0,209.0,114.0,217.0,1177.0,1033.0,105.0,395.0,18.0,15.0,12.0,14.0,17.0,16.0,13.0,20.0,-0.3876244404910274,-0.2212069469764713,-0.11382110005928851,-0.19411044081909057,-0.49308476536251816,-0.5273863409928403,-0.4136058834935423,-0.18053076987017058,-0.0418809178827035,-0.39277248332214615,-0.19475387581556833,-0.11362323225802226,-0.5137656376001768,-0.5423241601526451,-0.4705378375221098,-0.6118669532396322,-0.815969209048143,-0.8804549360044426,-0.40413072265656996,-0.4438771671195398,-0.46183164915140856,-0.5054804293921378,-0.4361565750285146,-0.4379602398067461,-0.16614692529645306,-0.13752138504777628,0.17650377985917193,-0.1394978147564188,-0.6472932202548436,-0.4882205221792762,-0.25020307761389976,-0.23919364421406658,1
12.35,3.875,2.425,3.275,20.525,26.475,2.0,7.0,830.0,249.0,141.0,215.0,1341.0,1681.0,127.0,469.0,20.0,19.0,10.0,18.0,21.0,18.0,15.0,18.0,-0.5373607685047589,-0.26458144735946715,-0.3833451822920709,-0.29466382843249733,-0.5829417950854278,-0.45702722304445104,-0.400247923899389,-0.1296324607711983,-0.24981556788671508,-0.20883282538710518,-0.26906783174210175,-0.29435780207510415,-0.529420108701223,-0.5991797179714832,-0.3345132408517164,-0.40604017868156705,-0.7620910881990375,-0.8309583869060809,-0.5982826867984798,-0.5357608337789475,-0.583003138618728,-0.4764627390015167,-0.5691485753514423,-0.4374998885639818,-0.3949490455666123,-0.0807163971310837,-0.16031452878646865,-0.21643937354751377,-0.662521770655741,-0.38476313726370065,-0.5719610193384435,-0.4938123967770346,1
10.45,3.55,2.2,2.75,13.7,16.875,1.875,4.75,604.0,187.0,121.0,180.0,792.0,1048.0,97.0,305.0,15.0,12.0,10.0,14.0,15.0,16.0,15.0,15.0,-0.21738580388235398,-0.18368102515178833,-0.14020338860482473,-0.33014185621995146,-0.11666106518128205,0.06246786762318522,-0.06834552692428955,-0.3447276620026114,-0.43337454676834747,-0.4884185918392194,-0.4048946255062324,-0.3511484591511474,-0.44505347657778316,-0.4881248833711056,-0.2779203035990459,-0.30024353663024683,-0.28641805543618704,-0.5063219588349417,-0.15759756590577836,-0.37702490979423825,-0.3809136214322404,-0.2697863779304755,-0.15499808731371,-0.26052098914164046,-0.28901933647831973,-0.23658856719286497,-0.11506115881220219,-0.06299632172729046,-0.28560165922745484,-0.13321296705290142,-0.07402508776760981,-0.044831486714684364,1
11.775,3.425,1.6,2.4,15.75,18.7,2.475,5.25,807.0,214.0,95.0,133.0,1036.0,1207.0,135.0,328.0,22.0,19.0,12.0,11.0,21.0,21.0,12.0,14.0,-0.654492580148368,-0.05149712000679423,0.13464629114797785,-0.12191652434470901,-0.2697448491780159,-0.022715201172191626,0.06583702333559797,-0.2266548608711066,-0.329373606794771,-0.39641781577582424,-0.3832212265764392,-0.147090004424521,-0.04119853002844628,-0.2494162169836159,-0.27434449247330234,0.06070078531132766,-0.5798296670295826,-0.5275687835866021,-0.2255492033692029,-0.1979127040368352,-0.4261831627712399,-0.14505322247685448,-0.18432552831658408,-0.25335982004615115,-0.04657052493060618,0.049871663488139165,-0.09767399537869208,-0.23522338631271356,-0.444123913147803,-0.22948835306566953,-0.34450035328317735,-0.2927839255242158,1
8.825,3.225,1.65,2.5,12.825,13.425,1.625,6.175,576.0,203.0,102.0,160.0,859.0,859.0,109.0,397.0,14.0,18.0,12.0,19.0,22.0,17.0,13.0,19.0,-0.42024292574594185,-0.1579737438133154,-0.1332123658296215,-0.18006025950554047,-0.3194238351849685,-0.1297981922514232,-0.040701009181372545,-0.2750238388412106,-0.31744838137816256,-0.15096398391072213,-0.14796413608663145,-0.4161484785389969,-0.46586274611714046,-0.2279992284722213,0.0270948590047267,-0.046015883444055064,-0.7107409644774398,-0.4938352708403001,0.027752434792184085,-0.044950124320532546,-0.20819862408432116,-0.3691089393833251,0.23644639427055164,-0.1310009637064233,-0.3499507570778703,-0.011058742628053954,0.042851014948327756,-0.23085867063698826,-0.27615152360344797,0.17500407309186836,-0.01849434992672996,-0.08664706080451333,1
10.7,3.325,1.85,2.75,11.05,15.15,2.4,4.7,670.0,223.0,100.0,150.0,729.0,911.0,137.0,292.0,19.0,19.0,15.0,12.0,22.0,16.0,10.0,15.0,-0.5434222530856734,-0.37480234830529185,-0.30465916894479383,-0.285947366386745,-0.7317517681461649,-0.5773395474185594,-0.5046819168324287,-0.3430861029667876,-0.18425217169080305,-0.3454964854774142,-0.32309679828203314,-0.20844896659657042,-0.2939622107250026,-0.4733751652966166,-0.48158320103134217,-0.41079306753381606,-0.6220569271703025,-0.5159431606733867,-0.46539794098327597,-0.39430114873580857,-0.2757511336436834,-0.5659521811013558,-0.2856165941908072,-0.42276383311651544,-0.3149957335413871,-0.13940564368686248,-0.13314188426894907,-0.020694512288418378,-0.5156811185843011,-0.4742832471055714,-0.1832542068144318,-0.1055955740666792,1
9.05,2.95,1.725,2.725,11.1,13.05,1.65,3.275,557.0,196.0,108.0,162.0,663.0,746.0,87.0,179.0,18.0,12.0,13.0,14.0,19.0,14.0,13.0,11.0,-0.499917483099923,-0.5330928913568214,-0.521809713810952,-0.4100291847596728,-0.4014913710409761,-0.4824337818835871,-0.2923469096742429,-0.35440401306677666,-0.21505960299327712,-0.07976814559112366,-0.05119186205558048,-0.054700796481844616,-0.13660452707706175,-0.3178003152757067,-0.05979530054612602,-0.2556533886402006,-0.3492812387865949,-0.4046600531309196,-0.23394625954198145,-0.4859371821239741,-0.2976423583907141,-0.2647660768507848,-0.4536841279496566,-0.37625159843278927,-0.0032927795831849556,-0.07451113465944846,-0.13164595139436136,0.11818964807428829,-0.0439647365736901,-0.2291621465961229,-0.027679357384840415,-0.31434999194927554,1
9.2,3.65,2.575,2.775,14.825,19.15,2.05,5.125,565.0,232.0,131.0,162.0,1065.0,1211.0,118.0,324.0,17.0,17.0,12.0,14.0,22.0,17.0,13.0,17.0,-0.2265284205837813,-0.21107260670862688,-0.1884379531517415,-0.4361378142963785,-0.3276266513769641,-0.08297589607810454,-0.17328490329316015,-0.3865151400848779,-0.1050281690049353,0.004539836425517354,-0.0732776828845525,-0.2099312058250271,-0.31496294226849497,-0.3358567697258506,-0.1382381749759081,-0.34000565462373944,-0.2240912487032106,-0.3351903528705291,-0.014408939454830997,-0.1263479545995957,-0.2511806798970153,-0.261701657006976,-0.20332800664359152,-0.2384175241485884,-0.09559695307297666,-0.09991417848263348,0.17830708340410537,-0.23732043652911994,-0.6793837710827209,-0.5247393824205421,-0.1466140613653889,-0.14804769679791188,1
11.9,4.3,3.025,2.825,14.0,19.875,2.45,8.275,756.0,271.0,184.0,184.0,960.0,1363.0,148.0,546.0,15.0,16.0,19.0,17.0,20.0,22.0,13.0,17.0,-0.30684670788089985,-0.17553861356026038,-0.07347930287632806,-0.022838721170143888,-0.39442601679100797,0.07207623916616766,-0.27085305536598,-0.20567278307581172,-0.3409948250207125,0.05709801354540323,-0.09648194781246809,-0.3781606491782255,-0.779806558633046,-0.5393549197045595,-0.3142056416299367,-0.23798799707839147,-0.3722788294638083,-0.091980853095473,0.0976079452090129,0.017471894689508972,-0.4430226593688073,-0.16075210407136944,0.07387887046190313,0.06396099535549674,-0.33017668295700103,-0.21023200236730485,0.054510077800861825,-0.31265911037513083,-0.5206956460043918,-0.32003564046648475,-0.10170640174685656,-0.12113643298804837,1
13.45,3.625,2.5,2.425,13.275,18.125,2.075,8.075,977.0,229.0,164.0,160.0,845.0,1143.0,140.0,525.0,22.0,18.0,15.0,17.0,17.0,20.0,15.0,17.0,-0.6390602867098882,-0.22019393882596003,-0.09994098063466242,-0.09809361975355754,-0.4157714168838933,-0.3095705953657088,-0.26860506137357015,-0.03954656005751174,-0.49973130533414406,-0.42262954365207595,-0.16300830264296629,-0.46455087551437185,-0.41733828760045194,-0.49619816368285197,-0.06831106166209781,-0.454901936048719,-0.7594434137939778,-0.7318641399062374,-0.4123367095736266,-0.3084699418702395,-0.6718960781154525,-0.7558930196526285,-0.4718472132712589,-0.4315404472205754,-0.38592772563824057,-0.43202369725499323,-0.034175735737541534,-0.34526436294580864,-0.5920761584161511,-0.3607537537055487,-0.13003580036695508,-0.0976160022548868,1
13.1,3.6,2.3,2.9,17.975,20.375,2.275,8.35,882.0,246.0,161.0,190.0,1202.0,1253.0,151.0,496.0,15.0,20.0,16.0,15.0,16.0,16.0,14.0,13.0,-0.7120017280426933,-0.6403346349958211,-0.6638662270872524,-0.6918183332739459,-0.6190263069067296,-0.280006800670417,-0.32647930333245645,-0.43818636925154403,-0.5859777431769105,-0.35890259445920286,-0.26956449920980263,-0.22547756982903167,-0.6710072357199675,-0.6877914602711008,-0.48277227427587194,-0.4139253182640594,-0.5641560632095438,-0.6672496353041616,-0.3774078323842569,-0.42962616438997575,-0.3898136848120743,-0.5609335844274661,-0.27651344080350687,-0.38040492052365094,-0.46287585612124665,-0.3084047835172054,-0.1523990395554447,-0.35027578777944357,-0.4179351668349363,-0.3460902918169145,-0.20655861891579902,-0.3051589733662816,1
11.275,2.475,2.0,2.525,15.1,15.75,1.925,5.25,740.0,140.0,121.0,157.0,926.0,1008.0,124.0,241.0,19.0,10.0,10.0,15.0,18.0,18.0,17.0,14.0,-0.36300780940107785,-0.24416090366907936,-0.38419728399619996,-0.4874910877420902,-0.2843379064853427,-0.14863059857324162,-0.19911430170121394,-0.3453019911784319,-0.45257304225162115,-0.27832437428157547,-0.46175060993269734,-0.3314586175425438,-0.6868031016379389,-0.5953013194694214,-0.5927548393236807,-0.4436706934582531,-0.15109731071524338,-0.32648793114596736,-0.14870049388960888,-0.2297908976987231,-0.44613136828155964,-0.4008445590795697,-0.4833926189601741,-0.24685851908029224,-0.2931092712137081,-0.13694662905594515,-0.2367847710268768,-0.139437462345899,0.041715959188769774,-0.4172015304868842,-0.26415313271417773,-0.40600039613980116,1
11.875,2.5,1.925,2.75,17.7,16.8,1.825,6.0,690.0,134.0,113.0,150.0,957.0,957.0,104.0,382.0,15.0,15.0,15.0,13.0,16.0,12.0,10.0,20.0,-0.3625999063664306,-0.4267039688291999,-0.4166714701451074,-0.2631532131494164,-0.3090567569228023,-0.5207822574538188,-0.3913648366602714,-0.34217710951094377,-0.14101383132796722,-0.21802207994927392,-0.11798146510455788,-0.11563012605223615,-0.35107607754685866,-0.5061447561886792,-0.35297384335102644,-0.07540926573160847,-0.2420229407676348,-0.36510276754542564,-0.25488584543172627,-0.24646914343826717,-0.21133150902600348,-0.378730882550506,-0.3966242979012853,0.001895038812145315,-0.07759273582010576,0.014431595864963525,-0.049392710460303406,-0.42226334439194296,-0.721418351788049,-0.4331967651233005,-0.3113748023389233,-0.34961906692789424,1
8.925,3.075,2.4,3.175,18.5,18.7,2.05,6.525,513.0,190.0,129.0,177.0,1143.0,1119.0,144.0,472.0,15.0,14.0,11.0,17.0,17.0,16.0,19.0,16.0,-0.3701418276541421,-0.4180323934782536,-0.3841492595763477,-0.2809366622166588,-0.5558181034510594,-0.6040966441936644,-0.35837998360317685,-0.2739847854554035,-0.010798712732840582,-0.25293805306811346,0.09713546761376364,-0.16088884747264473,-0.08662337720469133,-0.3671143485141293,0.008424479039612623,-0.14670955874753738,-0.5421312357222395,-0.4336783338092405,-0.16497578555612946,-0.17353782630820633,-0.28433761551816095,-0.5133916605892009,-0.09404299226070405,-0.22461082028637058,-0.32234384378487035,-0.018858242706919878,-0.011241665424305113,-0.5889583063094086,-0.5546654977512646,-0.2767013083402278,-0.23122629470587247,-0.45132230423461434,1
14.575,3.325,2.225,3.025,23.925,18.225,1.875,4.925,830.0,206.0,148.0,187.0,1510.0,971.0,124.0,298.0,13.0,16.0,18.0,16.0,23.0,16.0,15.0,15.0,-0.15717810317912428,-0.23587891200408,-0.20903245962242684,-0.2756814397574146,-0.6184170257965255,-0.5248418037842261,-0.4287554230929516,-0.40979972977867524,-0.40740269260055895,-0.1528758400720853,-0.32025036796384354,-0.18510856225101727,-0.333742779736615,-0.25335056805059625,-0.2662524005077064,-0.30979972831700464,-0.4696196001326314,-0.15592108335419116,-0.5100329363109456,-0.3473273398072772,-0.294512091655342,-0.18409015664680375,-0.6223704559049794,-0.34339881222057395,-0.3696814288553433,0.29377650908349745,0.15222679294362254,-0.3077344982122407,-0.30758728999968993,-0.20066207155251745,-0.19027431544065085,-0.34843982441105936,1
13.05,3.35,2.425,2.7,23.25,18.775,2.075,7.125,801.0,216.0,172.0,160.0,1545.0,1288.0,139.0,425.0,16.0,16.0,14.0,13.0,20.0,20.0,15.0,16.0,-0.4899300060114733,-0.475555418078842,-0.35875077738210576,-0.46647863457971234,-0.7377997639983795,-0.6535856373044477,-0.4930879413636873,-0.5012952233515234,-0.4657513266663989,-0.05351025123393855,0.10643341617989847,-0.02999564200563498,-0.29133006374281656,-0.2706114275144622,-0.11226856400735286,-0.29530398997120055,-0.7532215628774801,-0.7116698404902814,-0.5183357695829358,-0.47785644328408017,-0.9593932883367614,-0.9023253260149101,-0.5724995492219074,-0.40876342202754407,-0.2835472241930061,0.16695200561648904,-0.1854407453788289,-0.17991836368207018,-0.28777958168310375,-0.206351578511838,-0.38492376510816456,-0.2587673193356543,1
10.225,3.2,3.025,3.7,20.5,21.0,2.05,5.125,625.0,195.0,156.0,182.0,1346.0,1166.0,115.0,329.0,18.0,16.0,12.0,11.0,20.0,13.0,10.0,18.0,-0.4111277714931984,-0.23686031002221675,-0.3387897658259544,-0.2290879855485987,-0.4179403415275628,-0.06785880724022766,-0.30614642107053214,-0.3616202842693308,-0.3720141443620325,-0.29163672597412815,-0.44755749993453064,-0.6056217971274392,-0.19245016069474,-0.3731410598855641,-0.3223209801749187,-0.5339349754508245,-0.6060941103337723,-0.45516831691330945,-0.5169789600501472,-0.5813567044201915,-0.24282788722637275,-0.3335010113571329,-0.3685109967570334,-0.4086110854894154,-0.2012782041028101,0.08662313916491503,-0.0466499370756792,-0.10405299147219839,-0.1947925989282394,-0.05612617650016317,-0.26155567525605855,-0.05207912158557648,1
11.6,3.3,2.675,2.675,17.375,20.325,2.05,5.625,753.0,221.0,150.0,147.0,1069.0,1177.0,108.0,372.0,17.0,17.0,10.0,15.0,16.0,18.0,12.0,16.0,-0.23952541759700352,-0.15169560847569663,-0.20101335486406557,-0.06373466159873947,-0.45992980835365,0.0184120589932151,-0.20950507043348418,-0.253920332410185,-0.15808778716353916,-0.1280497272635265,-0.4289110875117427,0.01441165464954872,-0.30069790354850795,-0.24741703296004589,-0.556818845944188,-0.22852920372514723,-0.5830585914003389,-0.5485847576425587,-0.5452401812561969,-0.34171012407137047,-0.3764672969361283,-0.46501305799727605,-0.4832199726617024,-0.34121302183958907,-0.1771531799542813,-0.19601994312394774,-0.1701988504803336,-0.21083532479817751,-0.22205103790875821,-0.17729851463833557,-0.01493277267409529,-0.2333296406544356,1
11.45,2.75,3.1,2.35,19.675,20.0,2.325,6.45,788.0,151.0,201.0,150.0,1234.0,1198.0,130.0,431.0,17.0,11.0,17.0,11.0,13.0,15.0,17.0,16.0,-0.5829590903796357,-0.3625293748529221,-0.5488059288850655,-0.19379885639370253,-0.34868906458240095,-0.284873916139839,-0.31856599147080455,-0.254927044563894,-0.3346656700539896,-0.15530374949281955,-0.3462127721640552,-0.17682924833437513,-0.4320448176808213,-0.21653347356337266,-0.4727904827133661,-0.3463658859073067,-0.5175512295619841,-0.44716170313816367,-0.49106277281049227,-0.3594109550059022,-0.34847125249266264,-0.37103268913524096,-0.5053577957748233,-0.403290049805474,-0.10059473946739203,0.006272892503861456,-0.06158240783156624,-0.29227448148285673,-0.24016788909966844,0.12378815791027921,-0.21923320540808738,-0.2470408821422499,1
10.0,2.75,2.5,2.25,13.325,13.725,1.925,6.975,599.0,154.0,145.0,141.0,811.0,826.0,123.0,424.0,16.0,14.0,15.0,16.0,20.0,16.0,18.0,17.0,-0.26557107133090285,-0.4563959878986082,-0.3659639877303468,-0.26048167565231767,-0.17691592570119502,-0.04555750494063047,-0.1995338439666455,-0.058236445297019976,-0.3177139788804392,-0.25731805453130185,-0.1371240712986195,-0.12722610682412597,-0.22739439465715414,-0.2458891604271571,-0.3092946854273846,-0.383473094453247,-0.2921932650103414,-0.1851047690827232,-0.08095941470552963,-0.2874006590716181,-0.22394015240234255,-0.39958296505447666,-0.24908605027675326,-0.3321284295896407,-0.3565415603730252,0.17954588666874605,0.20060240637441187,-0.10803361688894407,-0.35368607438372596,-0.44048228581760773,-0.10492837653945301,-0.16106065215579946,1
11.075,3.3,3.0,2.925,16.925,17.675,2.325,6.55,726.0,178.0,154.0,158.0,1103.0,1146.0,120.0,425.0,19.0,15.0,12.0,13.0,18.0,20.0,13.0,17.0,-0.4786401630387031,-0.3691833168543177,-0.2118564941009386,-0.33288347651584316,-0.16023869464678087,-0.1366208055070498,-0.17822681977236832,-0.29014941335545114,-0.19713705880928392,-0.2719770306198927,-0.2939501734091829,-0.3041891081749761,-0.18827294525301072,-0.3151041020570428,-0.2877389870284849,-0.47498664944715385,-0.4159720884780033,-0.46194954502263785,-0.1823618118076871,-0.285501434068624,-0.3332134171842853,-0.4654533886187942,-0.2684488937470501,-0.5930161114762764,-0.2680423451648976,-0.39608923044120614,-0.2360879521388708,-0.27721549739456847,-0.2564429679043447,-0.18471590150422457,-0.2943973047965528,-0.13111079101431536,1
13.95,3.575,4.0,4.35,20.7,24.075,1.925,7.75,881.0,194.0,212.0,278.0,1205.0,1458.0,103.0,505.0,17.0,13.0,14.0,17.0,16.0,19.0,12.0,20.0,-0.511607464393225,-0.3532882266940467,-0.33951560439042344,-0.2759873177137772,-0.19430556157664014,0.011168580004411842,-0.2890390524641429,-0.4621200655798005,0.0340451429078099,-0.04178796689684602,-0.22921265201550922,-0.32316663669883366,-0.28297146603769463,-0.015776484911723045,-0.2673113063730463,-0.3445770982410405,-0.40884964310092775,-0.4014717015902571,-0.3567806332222645,-0.2606157198261108,-0.3176894156776875,-0.3328798543025742,-0.3769317649442188,-0.3459503301260366,-0.24049431281625705,-0.3350252797959598,-0.2709484109418097,-0.35050984722864936,-0.43310545543508644,-0.13060807521089085,-0.31392915362404683,-0.4220755938214111,1
8.775,2.35,2.475,2.55,15.2,14.825,1.925,6.275,627.0,148.0,147.0,160.0,1075.0,855.0,132.0,397.0,16.0,16.0,14.0,15.0,22.0,14.0,14.0,16.0,-0.671585663481942,-0.24116913993424818,-0.08175813732859298,-0.1065139478652089,-0.4041073040327972,-0.027427243707801405,-0.10454358385389752,-0.1852647050684837,-0.22023574203677998,-0.3779972394100731,-0.26660904416386205,-0.01717616745520844,-0.47321225220616936,-0.39315665467763766,-0.09359534266816973,-0.025546563317382632,-0.47989697974728585,-0.1479710897787685,-0.12971757599110326,-0.01905149343568689,-0.1308798539962496,-0.1723235300967257,-0.4152947735374928,0.1905131355814761,-0.30869848427832924,0.04918172157868952,0.06747563599725064,-0.3639303433135421,-0.4238336634440938,-0.22389205125047137,-0.23327375073808607,-0.29501988948763563,1
9.6,2.2,2.675,3.125,16.5,16.35,1.8,6.425,697.0,134.0,136.0,168.0,1119.0,806.0,107.0,412.0,21.0,17.0,13.0,13.0,17.0,9.0,12.0,18.0,-0.44016428518619927,-0.016654938089141737,-0.009516445730221635,0.049607243444790804,-0.2948627347298854,0.03661028288583966,-0.033017722592355116,-0.14436876683903282,-0.06849188562447049,-0.1360263164757249,-0.01706653181155787,-0.19416539920751455,-0.1482737544859083,-0.4317678141298015,-0.13209259458914097,-0.1923332034452832,-0.38195031847775474,-0.30001838117344515,-0.1659454557983882,-0.34530447305480905,0.015150508644083046,-0.11947934247449593,-0.004031348336771324,-0.3977721333064983,-0.2426463988414752,-0.19909594609175746,-0.09839872050611506,-0.3210528118719854,-0.4577184813115227,0.14669736046078857,-0.042301924250575496,-0.19245265281741508,1
15.55,3.125,3.05,3.5,17.325,19.0,1.75,7.45,1042.0,171.0,173.0,206.0,1023.0,978.0,91.0,460.0,19.0,11.0,12.0,15.0,16.0,14.0,8.0,16.0,-0.3739962861256747,-0.06012431841919835,-0.15028456479513763,-0.12482367430674784,-0.32497074598274284,-0.14421257888496938,-0.2746071974603973,-0.4788960805167749,-0.12387282642698723,-0.18941486531361926,0.05020776966164441,-0.47566338780957645,-0.12062172965287947,-0.30806053483203294,0.017803088409980454,-0.4644531114966177,-0.2744625553327855,-0.2417710572113068,0.14826141298067042,-0.17177695173676003,0.007535139136940792,-0.21692917690008665,0.048971217545401534,-0.51356387958696,-0.16339031129558876,-0.014825494449678579,-0.2565243969699715,-0.35079403838985895,-0.3637398085828157,-0.00790033792015945,-0.0705879932246587,-0.05234553184130476,1
16.65,3.325,2.375,3.0,22.475,16.75,1.85,5.2,1026.0,180.0,128.0,184.0,1477.0,1023.0,102.0,322.0,16.0,12.0,14.0,16.0,18.0,14.0,12.0,19.0,-0.26001948190627305,-0.4649395740122643,-0.13132125953160764,-0.3341921103496662,-0.05987982468940753,-0.11652175513045768,-0.06430208499542539,-0.5580406838105483,-0.0646882697328042,-0.2330745006809004,-0.04928766408684295,-0.4030785540384728,-0.3932747070609314,-0.3360670256755537,-0.21301988324214066,-0.27122243945308305,-0.5756870721101855,-0.36229288967763246,0.2232969279694874,0.024210215297523686,-0.1955788500365439,-0.08689274379923527,-0.028134045485642866,-0.32476292659369305,-0.14333225027447694,-0.2354687416072347,-0.20228252038777236,-0.0804667581182269,-0.20647911888792203,0.06446505449131462,-0.11140553509847119,-0.30804040561146084,1
13.0,3.025,2.475,3.1,16.05,17.975,1.675,6.95,802.0,169.0,137.0,197.0,970.0,1067.0,102.0,450.0,18.0,17.0,15.0,15.0,16.0,14.0,12.0,17.0,-0.25569957001313937,-0.3613682364743226,-0.24590505706877203,-0.1345053613557492,-0.055378343942092484,-0.2806652103578782,-0.2779558695799147,-0.013817079478407537,-0.4139476452156702,-0.537621038716445,-0.3715688103933792,-0.19920806244955594,-0.7317776382915634,-0.7853356864861069,-0.6159005215271413,-0.4751613032206675,-0.9064633371958556,-0.918771669252516,-0.9117085018982175,-0.5179730445537036,-0.2689599944916111,-0.5614830189085959,-0.5831001308878594,-0.049377956004787636,-0.41200721730822887,-0.3571513664480033,-0.2806349077952008,-0.1459325638767453,-0.6044668700229244,-0.7620343443348898,-0.3650148904142021,-0.37896172057423794,1
10.075,2.975,2.75,2.8,17.275,19.575,1.975,7.0,554.0,164.0,147.0,154.0,1037.0,1085.0,100.0,445.0,13.0,12.0,11.0,12.0,16.0,16.0,8.0,17.0,-0.08284897241493351,-0.20242178117855378,-0.33734040894931844,-0.2097571097739479,-0.1584831141758047,-0.2955711947769153,-0.28589739386376256,-0.11056911409463609,-0.10699634073512407,-0.22098072040928923,-0.15661507889004625,-0.14949986322714154,-0.16134986401351326,-0.45510154427957006,-0.08137892052695535,-0.32916746039862277,-0.41578883263124916,-0.07183712259630212,-0.22416706534729772,-0.25964641779694925,-0.11306986861197689,-0.0625479947279627,-0.21299762160771826,-0.3584423095105811,-0.03841821970180854,-0.05677035712839372,-0.07586764707187404,-0.2703740692675012,-0.37012159821753926,-0.3162068183820839,-0.2523576838098296,-0.0008091492377355752,1
13.6,6.55,2.55,3.025,23.525,20.475,2.075,5.625,807.0,339.0,160.0,195.0,1615.0,1331.0,120.0,382.0,17.0,15.0,9.0,18.0,19.0,17.0,15.0,21.0,-0.3028650799089291,-0.3062288692080948,-0.05887152858021928,-0.37081670484341506,0.18980403018748693,-0.08235856843273398,-0.16460307239616315,-0.28051517105369866,-0.3690990442226565,-0.2846744159865876,-0.14209047787359785,-0.34354804439693126,-0.27959427181970264,-0.2365610912291086,0.05382322311750064,-0.40955191859249473,-0.4993785762623928,-0.1262676306746285,-0.08186688877738355,-0.37845898632279323,-0.25625334936782934,-0.12036211702494377,-0.11596186447762548,-0.5360358865980117,-0.20020748367270086,-0.026544673154289676,-0.27811131896975044,-0.31814651689583173,-0.28973499004791353,-0.25364232626145833,0.12349159027134138,-0.27321564135129367,1
15.975,7.925,2.125,2.75,21.175,15.45,2.2,8.325,988.0,373.0,114.0,165.0,1379.0,997.0,133.0,543.0,15.0,12.0,12.0,14.0,18.0,13.0,13.0,17.0,-0.6559861210000849,-0.8734255090034225,-0.5649948439070815,-0.5030315546862111,0.38569458111821103,-0.1781944433016405,-0.0676766151364211,-0.1260134836729146,0.08872525798219505,-0.46552654879470073,-0.05230379698045594,-0.24286003102664921,-0.4642362041356813,-0.45406597629865014,-0.4048565395709483,-0.3170100620279938,-0.4517208609965116,-0.4934761309395407,-0.13033583339864752,-0.3074291456246098,-0.2791732376107529,-0.5105358685567681,-0.24109604768968154,-0.4148118456321174,-0.18932845629708078,-0.060037662508405754,-0.3722232243647705,-0.1075788415558979,-0.4632337227244876,-0.24258679139593495,-0.22810275418649317,-0.29003540686433527,1
13.3,7.725,2.9,3.7,19.5,19.85,2.225,6.8,696.0,302.0,152.0,224.0,1322.0,1095.0,123.0,422.0,13.0,8.0,13.0,13.0,17.0,12.0,14.0,19.0,-0.2071538672035438,-0.5009857635834538,-0.2733637687309129,-0.2641027837005628,0.4498582474359703,0.040585269840587884,0.10155465878010664,-0.13565635665285794,-0.06920329498040127,-0.370047111891411,-0.13890443881557513,-0.293797972229002,-0.5649428947338127,-0.5387385982302231,-0.47901200269529015,-0.3712369925744985,-0.5553691963325418,-0.587914541692506,-0.32646613176945,-0.25281334172018877,-0.29414607414639876,-0.41845280143107905,-0.2871185973674497,-0.2771067025189603,-0.07925216237996434,0.11744938971519713,-0.08720881920251948,0.008594446593712151,-0.4990598856648768,-0.3979845016223871,-0.25837642977240877,-0.056415885098550965,1
16.375,6.2,3.025,3.925,21.475,23.9,2.55,5.925,1128.0,237.0,162.0,235.0,1260.0,1186.0,164.0,376.0,23.0,6.0,15.0,11.0,15.0,11.0,19.0,13.0,-0.4240775821741797,-0.1292315884078005,-0.2813676933298128,-0.3166041990764708,0.3096532887789658,0.36197207053689173,-0.1365131231937134,-0.2650618871160002,-0.13636653586607994,-0.6524644084489049,-0.191708027150402,-0.24048231318789662,-0.21844601860866056,-0.3934640225377024,-0.23206557844918305,-0.18470657398117246,-0.3127079123997715,-0.6060721434752128,-0.29775318584819693,-0.41196978800157347,-0.1334904023663769,-0.5729798995985818,-0.28958463259251416,-0.37597420695473555,-0.32020125204083955,-0.17636285891497452,-0.07083730882668693,-0.010224642118870106,-0.1672278066639138,-0.12023890328318333,-0.14574941481860268,-0.29502006099351313,1
12.25,6.65,2.125,2.7,21.275,19.225,2.375,8.125,800.0,264.0,137.0,155.0,1299.0,1144.0,127.0,524.0,19.0,10.0,15.0,13.0,16.0,17.0,15.0,17.0,-0.3452328553438172,-0.18674047868779234,-0.11532009051256227,-0.25653282311070014,0.42106412914676317,0.1755601307125607,-0.1863866593462561,-0.2493593949682142,-0.2962856556622353,-0.5067831003840866,-0.300253194915779,-0.13906861427358203,-0.36415145940284666,-0.4191012570936703,-0.28889928999581665,-0.35022914194194976,-0.45605625138559164,-0.45492994983950885,-0.35029460133580637,-0.5073264369069185,-0.3700844460502082,-0.4330088864129587,-0.36191059890135463,-0.387972840198002,-0.19653681744245946,-0.2493091455797861,0.07055367922963078,-0.17003503945372284,-0.3871488425563898,-0.24140796524538966,-0.18447865004516703,-0.5192242308079098,1
12.075,7.7,2.275,2.8,13.35,16.325,2.25,6.775,776.0,319.0,129.0,154.0,829.0,1028.0,127.0,453.0,17.0,10.0,12.0,17.0,15.0,18.0,13.0,23.0,-0.3810709626036485,-0.2231942250837584,0.09612785065851379,0.12659209483016926,0.2745187678232602,-0.13177255942686283,-0.26452613889071636,-0.14621551197398763,-0.3892435163180458,-0.4097891242309695,-0.07818769679533537,-0.09196657035319765,-0.40210945482164195,-0.4318422186002212,-0.30672819402816054,-0.18575563339225304,-0.3702864895705143,-0.27647412585095665,-0.23891254815717297,-0.2778716982263894,-0.5566053322880972,-0.46813054241189456,-0.43471296102140783,-0.3233410259061985,-0.6011971856858854,-0.6405139626802193,-0.02309103369857828,-0.11086394665356222,-0.6141264003413048,-0.3660077739906438,-0.14465183904176973,-0.12418656020263986,1
12.875,8.675,2.05,2.675,16.75,18.45,2.475,6.725,801.0,364.0,116.0,178.0,1089.0,1210.0,155.0,493.0,13.0,11.0,16.0,23.0,19.0,19.0,16.0,16.0,-0.40804587983151486,-0.4753393236362465,-0.048386042788262855,-0.18843348085350653,0.5607494329953797,-0.1671034192834856,-0.13288252251617155,0.06462224306519188,-0.26152147421302124,-0.2993763429649907,-0.08819768623246642,-0.016111363169009393,-0.670055481680563,-0.2666697881259752,-0.1872402059225458,-0.17445208929060713,-0.46257518823054816,-0.2552752229538346,0.002606404324775942,-0.17496177032315738,-0.6025298485214906,-0.43552702290642836,-0.21586230816460647,-0.19567133890290372,-0.5485099709507992,-0.2989995070317445,0.05399094126009572,-0.0056645998406783015,-0.5229029417980549,-0.26452103182444536,-0.021775886306663033,-0.17716291168389225,1
9.625,7.7,1.975,2.425,21.45,17.925,2.05,6.475,624.0,284.0,106.0,137.0,1299.0,966.0,126.0,440.0,20.0,10.0,13.0,12.0,16.0,14.0,15.0,16.0,-0.4425499899285412,-0.33715781155435354,-0.25124216290167417,-0.397099197446694,0.9131559052288328,-0.29272283351110334,-0.32052860649307574,0.3038172383902114,-0.3880248213564884,-0.32775016961036785,-0.21065207019021048,-0.013601478042630719,-0.5613757573716515,-0.43119019811135234,-0.4043399847675494,-0.2354221209341843,-0.5739246826508762,-0.38046852790113334,-0.12065026995428141,-0.13305309219593855,-0.32437821511348325,-0.4337014916599423,-0.4117972420156613,-0.20515424904374452,-0.19587381660986222,0.052725280962616125,0.08453458979338555,-0.07550150662659465,-0.3540014801308874,-0.0938133512935306,-0.40016214955075696,-0.21203456201613208,1
8.95,10.05,2.725,3.025,19.25,20.2,2.075,7.0,524.0,331.0,150.0,185.0,1134.0,1158.0,129.0,410.0,17.0,8.0,14.0,17.0,19.0,16.0,10.0,16.0,-0.13368564126025986,-0.3855898435880825,-0.12042713697856056,-0.39895440332733995,0.4839139861689778,0.13473138914796529,-0.1306826598249386,-0.3510305472244942,-0.2883246354174593,-0.4942980465743864,-0.24493701231815554,-0.3767914225666496,-0.2946839447287949,-0.31321723901297427,-0.11371382815656891,-0.4201551260796287,-0.4647900815796012,-0.43804441014495404,-0.41286775209011284,-0.5463096506464191,-0.5327879892131622,-0.5958152866587144,-0.5284775189216888,-0.6097314024892129,-0.49057744647883555,-0.11977743678441588,-0.13830940341639938,-0.20234997231444193,-0.10880005543455774,-0.08990016313740361,-0.1650616776351859,-0.1919366177085112,1
13.7,13.725,2.55,3.125,22.775,21.4,2.25,10.025,844.0,420.0,144.0,206.0,1551.0,1398.0,146.0,682.0,18.0,11.0,15.0,15.0,20.0,19.0,13.0,18.0,-0.5436544867904243,-0.28502979134094525,-0.30323186640580774,-0.1443859473027192,0.5274881961279799,-0.043472575398451126,0.0513603509057769,-0.4801081836539406,-0.2505723775231735,-0.43146345665075037,-0.150280894826021,-0.5968595491260896,-0.5554937247294902,-0.5715624096824835,-0.3775027851236706,-0.5526232095803898,-0.6487936576665904,-0.4959142477748661,-0.19481816134703936,-0.3390717257533984,-0.436487791943457,-0.41497976652532376,-0.3040079438653521,-0.5501555610441421,-0.4497214149884836,0.04116084028975797,0.05601950545199332,-0.09387583645527743,-0.25680759294178385,-0.38621881501334987,0.06703426566003119,-0.4146218137010892,1
11.7,10.1,2.35,3.2,25.2,23.1,1.975,5.15,719.0,386.0,118.0,171.0,1604.0,1378.0,104.0,324.0,16.0,12.0,9.0,13.0,18.0,14.0,9.0,19.0,-0.4235842939359463,-0.3680238632870475,-0.2650084554044162,-0.03768762410888216,0.45837933880947446,-0.19363791229927352,-0.1880628102944781,-0.18223554935991196,-0.06466272445157586,-0.34013820122403693,-0.2645759172602482,-0.26425079636092147,-0.21511748996938945,-0.3653299143486227,-0.22310403369917425,-0.336197156865717,-0.5370555677287502,-0.45165174285866766,-0.44118372137591605,-0.3977012022954373,-0.3887327841490918,-0.401419279993748,-0.509901819518445,-0.35856318122596903,-0.08188079025206312,-0.08359923451053763,-0.1319820261197627,-0.035712238378153315,-0.5592617943207879,-0.43106367206460283,-0.4542023014914193,-0.26475262676215483,1
9.2,12.05,1.925,2.775,16.65,16.15,2.15,4.425,565.0,409.0,127.0,145.0,947.0,1013.0,125.0,249.0,15.0,7.0,14.0,12.0,15.0,19.0,14.0,12.0,-0.2173193158250188,-0.3843578805097479,-0.16333056820103045,0.0351424199539,0.7052907417551411,-0.03456517428421314,-0.22724185771788824,-0.14058865364921905,-0.4298487940966349,-0.4191478113972488,-0.23094878212122827,-0.25659002080750326,-0.018512722149922025,-0.1289236108407531,-0.18119265611668287,-0.12361659649369633,-0.48364535702927175,-0.38752516324167635,-0.2044233515686619,-0.07015975043835955,-0.508221951457502,-0.3945255450058141,-0.15769359802504626,-0.14058660240114196,-0.41754333811861866,-0.23225153842233973,-0.27889396565159746,-0.04435497515316772,-0.37379552774006897,-0.5310888142501445,-0.46393811298653237,-0.40094865907308186,1
11.95,7.925,2.425,2.85,14.7,16.175,1.375,4.9,786.0,302.0,141.0,156.0,912.0,1025.0,81.0,326.0,14.0,10.0,11.0,15.0,17.0,15.0,11.0,20.0,-0.49056031653429527,-0.3844247780437085,-0.29942457621632257,-0.3331604740736644,0.5184537939067659,-0.13924629712203213,-0.08559997735065267,-0.25823759603920937,-0.2640571229651709,-0.22360942731740463,-0.1295173649227591,-0.15912640379989498,-0.25003424016413067,-0.18717520842964774,-0.5627099597957936,-0.3484617988477912,-0.43264963260374406,-0.6032928678384009,-0.2963052118915742,-0.41543625989857497,-0.4908335843671221,-0.522085693547339,-0.332959828492509,-0.24435623997811048,-0.10699644525293396,-0.02997720289253248,-0.11492274944250697,0.21776282153371423,-0.444131652758448,-0.027687031284158555,-0.2924987866971018,-0.4329490281565504,1
12.375,5.675,2.825,3.175,20.95,21.45,1.725,7.95,803.0,299.0,181.0,183.0,1327.0,1326.0,104.0,560.0,18.0,11.0,15.0,17.0,19.0,19.0,18.0,18.0,-0.5926528602029099,-0.5186942104915321,-0.42285161500133217,-0.15046080625628191,0.1052412295241869,-0.038481670735254284,-0.08762767550409814,-0.06442898606817973,-0.5326051941708531,-0.3673068172001682,-0.09073820510315372,-0.06519447812162167,-0.5522498662539516,-0.49197251300337774,-0.3248721300758158,-0.13448181624318903,-0.6047280106773864,-0.6668991477564631,-0.5251403573939445,-0.582629681800886,-0.4819705787483409,-0.590750566169141,-0.3595211328180492,-0.5032711214555912,-0.3401188890322204,-0.024749669317514916,0.09171752916678717,-0.1686621575300974,-0.5504850948726313,-0.15490886408785293,-0.44096448091230483,-0.2387588645826745,1
11.85,3.825,2.225,3.375,15.325,16.35,1.8,7.15,839.0,209.0,142.0,205.0,963.0,1027.0,114.0,444.0,16.0,10.0,10.0,17.0,17.0,17.0,15.0,13.0,-0.7278970594104699,-0.5511412101030739,-0.536929687637515,-0.36219687593802996,0.06521327270863027,-0.027974571600145336,-0.050964625595001874,-0.4233533750144749,-0.5516415362880335,-0.3295232999665445,-0.25592586463206707,-0.11935737605365136,-0.735531653580892,-0.6082928033426396,-0.427011833225608,-0.27981117796131033,-0.7736479654664392,-0.6064974214969703,-0.3960279733285268,-0.13249115990941193,-0.41022000696676886,-0.26621670013929816,-0.43693399579176706,-0.3011919965733319,-0.2870497105166188,0.2985001751920707,0.04262183190786278,-0.37016131194108337,-0.3703549066076754,-0.2471176436130204,-0.3159169736633085,-0.07705478477251768,1
11.325,2.85,2.25,2.525,15.3,18.95,1.725,7.35,734.0,149.0,152.0,171.0,1076.0,1231.0,92.0,456.0,14.0,12.0,17.0,19.0,20.0,20.0,12.0,17.0,-0.3878199247112136,-0.3305961451853628,-0.3783517741875261,-0.13255852910325902,0.060916190339865735,0.23124659059211314,0.1514774909151174,-0.25964750715753154,-0.48939556141528023,-0.12322860651275831,0.2262181844533893,0.021142037845669735,-0.6305608277621689,-0.23130605051748346,-0.0342515558563652,0.11209065578027395,-0.950160126589334,-0.6441632425272363,-0.275435682174292,-0.3673715653552107,-0.44507646270470774,-0.4024142381100758,-0.24967141608869864,-0.6062242097232344,-0.017017508259789624,0.22899355602928806,-0.008788570578241506,-0.17917738162195213,-0.3193987069108636,0.04394202286778021,-0.15091442747054112,-0.4949334238401451,1
14.075,4.325,2.2,2.425,16.85,16.275,1.825,5.15,858.0,144.0,118.0,144.0,1121.0,1006.0,91.0,297.0,20.0,8.0,11.0,13.0,20.0,17.0,7.0,13.0,-0.3424858988900136,-0.2450816025157381,-0.2131305061946875,-0.1650867690145124,0.682812949063211,-0.11626706628477887,0.11542801552609722,-0.1933010054650241,0.0021941543040238883,-0.2083275368878899,-0.17187781194829527,-0.28566254810299746,-0.5112785348139198,-0.40632386538449355,-0.40900486833551436,-0.1279990039448771,-0.7831078004038629,-0.7338368658393254,-0.3373340972598002,-0.27884089252163263,-0.5135226043999833,-0.46266353854520353,-0.480439195082618,-0.5317217197559884,-0.01571797003920964,0.08508502065496952,-0.3873316918707475,-0.06242199638755872,-0.2018035075010743,-0.10416848261102714,-0.2298289646123935,-0.23638617800093215,1
11.8,3.075,2.0,2.625,16.15,14.2,2.4,6.05,767.0,147.0,117.0,167.0,1007.0,907.0,152.0,396.0,14.0,10.0,14.0,17.0,18.0,19.0,21.0,24.0,-0.33666437548905453,0.1634573457203385,-0.24586281194617401,-0.40317975111381715,0.2637975343771529,0.09658446178511192,0.050971181792774586,-0.2710214490325904,-0.12753345831417268,-0.20356565071274663,0.12822507938944835,-0.39458715987069237,-0.44022396828411714,-0.09587559008571682,0.12989704750786843,-0.058623261812899494,-0.5846474059941996,-0.3826010614363632,-0.36332652417588274,-0.1604897141932138,-0.4749680213070722,-0.1550201188571463,-0.3888324751052579,-0.3309642702086562,-0.4744390224759033,-0.1741492746513968,-0.13708173592743333,0.0593773200002754,-0.49555733099556304,-0.21697520422620348,-0.19752393246953773,-0.14489741321030972,1
13.7,4.0,2.725,3.225,21.275,20.3,2.175,7.05,976.0,193.0,183.0,198.0,1387.0,1233.0,125.0,428.0,19.0,10.0,18.0,14.0,17.0,17.0,13.0,15.0,-0.5415983035331394,-0.07947393648040434,-0.30682142522928424,-0.3042471108164571,0.17742747798989764,0.27767610434711476,-0.1632595899902753,-0.25902411996136665,-0.4391169764286652,-0.08840167505159616,-0.08934369358109388,-0.35591266315853626,-0.343883302167953,-0.09417981926468447,-0.06613106064908598,-0.43210383479142195,-0.4825030193172767,-0.05966744924881086,-0.33276115789231603,-0.3301644660120741,-0.4398624312297788,-0.2730643163595893,-0.4456547800337737,-0.5288897048343544,-0.19824290742216824,-0.19622911595148854,-0.13442872615061816,-0.15901450318837734,-0.2616597359148992,-0.3036920477604518,-0.22138126389469198,-0.28691299054645514,1
11.125,2.95,2.7,2.95,19.325,18.75,1.775,6.1,729.0,119.0,191.0,191.0,1290.0,1065.0,100.0,375.0,18.0,7.0,16.0,16.0,19.0,15.0,12.0,14.0,-0.4520584659654174,-0.28239445877865854,-0.2176922254407549,-0.09800341406841395,0.23223721352544427,-0.03172610270393027,-0.0674394517704364,0.0331965752386666,-0.5302990452605054,-0.2942985502518964,-0.23926645902455404,-0.46558784168164136,-0.42658441226617877,-0.2235569397276035,-0.20593555632515365,-0.5320342254640087,-0.5570457943616859,-0.2876805671003304,-0.46468771298624184,-0.608890076401139,-0.3785634704156528,-0.3338761241092032,-0.3386506828670828,-0.5389054404358283,-0.11292916329052095,-0.5097142896662868,0.00871765806848102,-0.33308796339564667,-0.05161772221658203,-0.4276166597632819,-0.18787670484410543,-0.19837712878289762,1
6.75,2.675,2.5,2.85,17.65,16.6,1.675,4.525,378.0,125.0,146.0,173.0,1051.0,967.0,78.0,262.0,11.0,11.0,14.0,14.0,20.0,18.0,12.0,16.0,-0.1319595196525631,0.00911165665378499,-0.32784745074331756,-0.17582566457401874,0.1579930682242109,0.01564212661991623,-0.12414089363176607,0.003832727082529788,-0.24818745043710846,-0.38103830204445527,-0.3730689211361973,-0.34276432408540947,-0.39119756050132365,-0.4685403347021989,-0.3015142808868884,-0.3231885852810595,-0.51481059527509,-0.4329396607404413,-0.25298122034055126,-0.3210224944441415,-0.46735544983747607,-0.34393101849883245,-0.44197471957978696,-0.4520659241010674,0.11459210186875894,-0.08651915046491088,-0.07293611828991138,-0.41857626057485364,-0.06887317045820099,-0.1147695914005389,-0.15922236564685552,-0.10445169502261152,1
11.525,2.975,2.25,2.775,15.75,18.175,1.925,5.475,675.0,160.0,129.0,161.0,919.0,1067.0,138.0,372.0,17.0,13.0,12.0,13.0,14.0,17.0,18.0,15.0,-0.3569467095769882,-0.18353053469980407,-0.44251656771038445,-0.13348909839412254,-0.076975861339604,-0.12855241582571458,-0.2335385189853033,-0.014903593645306114,-0.08281671434213402,-0.20385756298450597,-0.2535373938133343,-0.36018973290804207,-0.1426076223719614,-0.18810418511315097,-0.13957407618600728,-0.3379029897759659,-0.38831578742426975,-0.35794025792446577,-0.2912477923276783,-0.45795231445737,-0.15672874881404839,-0.3093913217809678,-0.24259313064229654,-0.4607322091118388,-0.5867495633157861,-0.01884728699655296,0.20315118988475095,0.1482810115782688,-0.14217118440383206,-0.06879871981155361,-0.2706985472446019,-0.14317842976319722,1
12.45,2.975,2.15,2.625,20.475,20.175,2.225,5.475,822.0,130.0,127.0,158.0,1320.0,1336.0,150.0,358.0,19.0,11.0,12.0,15.0,20.0,19.0,13.0,17.0,-0.38948527855005355,-0.33259001313915876,-0.09125136867733732,-0.1254312738078071,0.3316348732165488,-0.07057376516578419,0.0033624456340611997,0.05058983506844605,-0.32365385781046774,-0.09348171394382257,0.014559448354557586,-0.07840272385547084,-0.27700078763515706,-0.01209163776676759,-0.19124046708897083,-0.37859013088966686,-0.6442559981825847,-0.30974586702870194,0.13790555124259934,0.18068286979946951,-0.4834009174933271,-0.24748660292016028,0.013228096071845542,-0.15053247469866113,-0.5397026377139886,-0.07578764149123443,-0.05210631409154509,-0.08798553542419663,-0.3124380381493879,-0.11398594315282197,-0.29579649889798376,-0.22236453028722447,1
12.325,3.15,2.325,2.35,17.425,17.85,2.0,5.6,806.0,166.0,131.0,141.0,1205.0,1128.0,119.0,316.0,19.0,17.0,15.0,19.0,21.0,19.0,15.0,15.0,-0.49150662749082463,-0.39223794600030204,-0.06338165167229566,-0.1360311326450907,0.045757701663958275,-0.330844066528081,0.00238332490486367,-0.27046019687005457,-0.22015877981782686,-0.286574618930801,-0.17308645312941837,-0.3520907217740653,-0.30756679389840613,-0.23413626509064614,-0.14395394680725826,-0.22558400720402308,-0.5492311993002332,-0.3642214588732351,-0.12666384077418671,-0.17812305657428526,-0.35681118090966973,-0.3061667229745873,-0.12583929680131628,-0.25137562698528204,-0.3233560422342374,-0.09962891373211225,-0.28212704118335086,-0.12801285397783307,-0.021157400009705663,-0.09127553079576503,-0.24032261213142964,-0.1927085742698558,1
13.525,4.025,2.225,2.525,17.675,17.825,1.95,7.75,827.0,177.0,120.0,166.0,1085.0,1149.0,117.0,530.0,15.0,13.0,8.0,15.0,17.0,17.0,10.0,19.0,-0.33477538669081425,-0.5634691090885672,-0.29902948842065874,-0.3700898516862836,0.2891874986204296,0.051628962345261084,0.02295110061390665,0.06540464362073589,-0.3110742464804294,-0.38725599757535367,-0.1556481352987038,0.046782879306490166,-0.5526327593497135,-0.6672047727921393,-0.548065361026034,-0.3868359537729503,-0.530927798483255,-0.5557152744659559,-0.4148954255774628,-0.40431063058512884,-0.4579038482918058,-0.5568315651064375,-0.21613963803224293,-0.2828136520808998,-0.22324874698896016,-0.26384141199854577,-0.061654900767818314,-0.43938117601310395,-0.4708329640941476,-0.17414088923246474,-0.09657486680449538,-0.24687377198724958,1
15.825,3.975,2.075,3.0,20.925,16.2,1.95,6.175,1034.0,172.0,112.0,172.0,1302.0,848.0,86.0,407.0,19.0,7.0,13.0,16.0,19.0,13.0,12.0,15.0,-0.3815340208152869,-0.31911034585067705,-0.27372759973037664,-0.3448159125681585,0.5660163173763071,-0.28120341708979285,0.20636653172767028,-0.053870460343340545,-0.07629774461694837,-0.2897409054356927,0.07797800294201924,0.07094723616685156,-0.18842993981067732,-0.30651677136547273,-0.16468241923222537,-0.10756643462444217,-0.47808092007801845,-0.37233941987788427,-0.28731802668494555,-0.06316603846477423,0.07661489398164294,-0.4166752422642837,0.05794559665426477,-0.16031880725272546,0.2626957433288874,-0.1238904526982304,-0.3115483205214312,-0.022929409047832586,-0.4988226003387118,-0.3230411865457227,-0.4130505343718575,-0.12292811082678855,1
11.05,2.175,1.9,2.7,15.525,15.4,2.05,5.85,657.0,95.0,107.0,171.0,1063.0,922.0,116.0,404.0,14.0,10.0,8.0,15.0,15.0,17.0,16.0,18.0,-0.2637322052057913,0.24837013191559087,0.03884304788162121,-0.15416466148846145,0.23839652690546656,-0.013046849428330655,0.152842518647703,-0.06393704791181365,-0.4305562690097832,-0.09499699718493478,0.00038274053432085667,-0.06320071946988481,-0.5091678168210038,-0.1486886066601254,-0.14266713197544723,-0.11866224136309743,-0.39947280375583166,-0.3562866805269607,-0.1585956225322598,0.061293199780354725,-0.1692002277525905,-0.06038602660346412,0.1391263151201067,0.05011683573714097,-0.24075476744055394,0.0023313918657620223,-0.2749959710241953,-0.3729251794828861,-0.4673554416917701,-0.19859078685179654,-0.4701591470275024,-0.28184197941928907,1
12.325,2.25,1.75,2.4,14.6,14.575,2.225,5.875,767.0,118.0,106.0,160.0,950.0,948.0,116.0,375.0,15.0,13.0,10.0,17.0,20.0,21.0,13.0,15.0,-0.4564970396169603,-0.3169959719422272,-0.42576351481053526,-0.2877078315365589,-0.10156240123322235,-0.129454210569748,-0.053905503977296175,-0.14825461595392464,-0.24466073235577487,-0.037896133097018725,-0.025800413355903055,-0.131312204306746,-0.756533855942387,-0.4312766923423137,-0.3948211864767203,-0.20482597942666445,-0.4136777938101897,-0.45324567842711383,-0.23025897395671685,-0.1807094588875606,-0.5823750807946523,-0.5211864837685266,-0.23282035168423804,-0.18312132206874424,-0.23893106874111936,-0.3075172453583578,-0.21191838971670457,-0.3569573923637037,-0.3014040363936152,0.21758520231007236,0.006912132941966073,-0.2251809340791328,1
12.3,2.45,1.9,13.2,13.7,14.775,2.35,6.7,836.0,148.0,117.0,503.0,722.0,914.0,138.0,381.0,16.0,16.0,14.0,6.0,13.0,18.0,12.0,16.0,-0.46501715350472256,0.09751185292289577,-0.13191456417968445,-0.3378366979221215,-0.05787215722230639,0.10531764042066306,0.02671261293282349,-0.5139767232931637,-0.22224074405175892,0.11502577418461818,0.1601508871568834,-0.17235169196957836,0.8921166236722075,-0.2497279208725964,-0.22519193373968957,0.0009476483359722625,-0.1897684874221823,-0.2088638833751758,-0.17440113625727696,-0.356953188028089,-0.3682584030984851,-0.20873344869631985,-0.22242654302864354,-0.471102862022629,-0.4290057922353293,-0.404564455645185,-0.44035229314407526,-0.42486294106829586,-0.21705622788055473,0.1049188229632541,0.04571923742241965,-0.2340014406213332,1
9.5,2.15,3.2,4.1,20.075,15.675,2.25,5.875,639.0,132.0,154.0,183.0,1292.0,915.0,115.0,327.0,21.0,13.0,13.0,9.0,19.0,15.0,14.0,17.0,-0.5751289112805957,-0.38345310144643413,-0.2129302526707449,-0.3905721741486078,-0.2451608074904398,-0.017981742755759207,-0.06464782233159275,-0.38289671305632383,0.37476379014468775,-0.1838785832095809,-0.17812183835469436,-0.17222514815781392,0.18833108120486525,-0.08017163568354896,-0.06646701785857682,0.36230553205971966,-0.6981160154454833,-0.6467084877303778,-0.5005301077807546,-0.35922109879579905,-0.2597936028754302,-0.49347104912380646,-0.3318263313986942,-0.28758557068830665,0.021674622602293376,-0.04434697946481474,0.13300865899061454,-0.254668372126221,-0.2804461940702835,-0.4787687770210912,-0.07839549152552439,-0.3413722073675176,1
12.3,2.375,3.55,2.475,14.5,15.175,2.4,4.875,788.0,128.0,134.0,134.0,873.0,911.0,128.0,332.0,18.0,11.0,13.0,13.0,19.0,15.0,17.0,14.0,-0.4295017850799561,-0.2942471000482472,-0.41919366850385253,-0.20753570393665097,-0.34056997350069645,-0.20195578490553043,-0.34170352420346234,-0.07891519010773189,0.775472457866537,-0.1845732624209654,-0.15450509009276325,-0.006599937849575399,0.08566586929555454,0.03743416275809003,0.03926317605952545,0.07615425889913931,-0.35085527269939076,-0.3403450828587261,-0.332406988000488,-0.2027060817830569,-0.4037264893472457,-0.30940542281637373,-0.35774641617557595,-0.16006373610068875,-0.14333730995440966,-0.17641234939769074,-0.28182456278476864,-0.05828254792724014,-0.274754404662377,-0.1207106913294812,-0.33590583891258863,-0.24220667030234097,1
11.075,2.625,2.625,3.425,14.3,17.45,2.925,7.2,726.0,144.0,154.0,201.0,878.0,1163.0,133.0,442.0,12.0,12.0,15.0,12.0,19.0,19.0,10.0,13.0,-0.37361366240755645,-0.2733476497964598,-0.32934936682721294,-0.18976254080261445,-0.18016253278689093,-0.0032555228151653114,-0.07502266054837901,-0.0059598212851021464,-0.32550851136657916,-0.17498436790238647,0.10341393767125977,-0.02192670091745214,-0.1060029849821355,0.043766168391463245,0.2752353164499018,0.05092299149234032,-0.4362199136718975,-0.6001803830910714,-0.4385939510270105,-0.20477847859308082,-0.454546541004858,-0.3733734157966028,-0.32819254713954205,-0.22965991601611485,0.2257604618977585,0.060667481256159915,-0.3702136068991284,0.06297280109843095,-0.40297828902668337,-0.21984614116330828,-0.21452709579456597,-0.3786166060292739,1
9.55,2.45,2.9,3.225,17.375,15.325,2.625,6.175,580.0,131.0,156.0,190.0,1145.0,966.0,121.0,390.0,16.0,14.0,15.0,16.0,17.0,17.0,8.0,13.0,-0.2637211198579861,-0.35649983142829617,-0.2563872901826702,-0.4040025771836494,-0.18292242852291396,-0.1068022760279305,-0.2912365890718447,-0.15070428938409378,-0.3688534393336581,-0.3519036973334492,-0.14774597316298238,-0.22783967513898154,-0.2750179781395686,-0.29327261554728284,-0.059372133622922055,-0.23808646477947065,-0.4276211010011936,-0.209917064087255,-0.3485962034585236,-0.18801276138711584,-0.49922790103505904,-0.5156233577128332,-0.28554415839414565,-0.18806813562164035,0.22868626825512473,0.06945513048917784,-0.11790639745949524,0.008191418038621818,-0.33177007171299666,-0.18186266762003908,-0.16252904358611503,-0.27077897750621643,1
8.975,2.325,2.55,3.475,18.675,16.725,2.1,6.025,543.0,139.0,134.0,204.0,1229.0,975.0,116.0,410.0,16.0,16.0,12.0,17.0,20.0,16.0,14.0,17.0,-0.2803354697150023,-0.11790804079202284,0.04347841982736902,-0.08754933063803848,-0.31084753138631127,-0.3524145466096436,-0.17307435274435773,-0.006346844965987737,-0.37166842550998663,-0.3874615225849151,-0.2741741111670986,-0.4335663238292684,-0.28775438889193233,-0.2269072809408527,-0.1185382087399277,-0.25891774430355785,-0.5011505238026251,-0.4764138778102194,-0.2857086662002601,-0.2914665817432726,-0.44671031657220783,-0.5131381634261833,-0.14378702779852287,-0.34548219388260176,-0.020726757554612136,0.0637481074956015,-0.027907210500387847,-0.24230222547652505,-0.4902168120506863,-0.2918762604328035,0.06026369806615105,-0.1941789752764453,1
12.575,2.325,2.275,3.0,15.7,15.8,2.3,7.95,816.0,130.0,146.0,184.0,1017.0,995.0,101.0,522.0,15.0,12.0,14.0,15.0,18.0,18.0,11.0,20.0,-0.2623548548074389,-0.22426941134170222,-0.03638404056094812,-0.26997545835437087,-0.21202289407240643,-0.19900200504415397,-0.20673505061646943,-0.30250326999789484,-0.2821388277415369,-0.14650188143163376,-0.1698156555722414,-0.5828806212844331,-0.3444918641079208,-0.2071017406570529,-0.18288431527594304,-0.27278272999092285,-0.5131533940955318,-0.2880654397046328,-0.35711861532028294,-0.2677523729708096,-0.42748586878446415,-0.12087567066633448,-0.41354046954997226,-0.5575573106168578,0.4018332471599252,0.1185045915056311,-0.03354360373118332,-0.13705067406249832,-0.5289199417504186,-0.14707989240379735,-0.10304338828599763,-0.2611358680332079,1
14.375,2.775,2.475,2.7,20.275,16.575,3.15,8.675,892.0,169.0,149.0,179.0,1398.0,1071.0,139.0,625.0,8.0,16.0,16.0,16.0,16.0,16.0,13.0,20.0,-0.30318430784249095,-0.30003347681233133,-0.08631389558013451,-0.17647395930567572,-0.2775860431473781,-0.2512188401110456,0.05693033631092684,-0.39971402547942025,-0.21683221637201136,-0.22833113259371943,-0.03161638650300939,-0.5378263419514442,-0.4040002760644932,-0.38785212042727435,0.0041585998146331325,-0.4058092755389434,-1.013380891473688,-0.8359518057633923,-0.548789176545995,-0.2871826356955197,-0.5735301197541005,-0.4348509543490074,-0.17545606375444653,-0.44772010083671476,0.14165864274378268,0.19757288159241285,0.0679078809927092,-0.4465538859419851,-0.7644376553683835,-0.5374356795682536,-0.10766497781962074,-0.19616419264459317,1
9.6,2.325,1.8,2.775,18.425,15.325,2.475,6.675,590.0,117.0,98.0,180.0,1203.0,884.0,127.0,422.0,16.0,12.0,9.0,18.0,23.0,19.0,13.0,16.0,-0.23658816064488233,-0.31914957981772935,0.010491388653063934,-0.2384067504778467,-0.06063402342858796,-0.2997762219707502,-0.05916234070019269,-0.5744817158020921,-0.27590425921745904,-0.317170892727635,-0.4281946604068058,-0.46607364460478523,-0.5435698969804015,-0.33795295276019915,-0.5768386794215883,-0.16886594634108937,-0.39310544900762245,-0.04087459174453255,-0.19733091457577645,-0.28958621274788127,-0.28466079440588893,-0.08906659109133015,-0.14585906424992345,-0.21332021588031239,-0.13555175886001156,-0.002387739118174233,0.036667495754450004,-0.4231611580966291,-0.43504414041637574,-0.2728308972270086,-0.043723734656169445,-0.21000587843786553,1
10.125,2.3,1.975,3.6,20.5,18.2,2.275,5.275,594.0,123.0,116.0,255.0,1370.0,1127.0,118.0,355.0,15.0,7.0,13.0,12.0,20.0,15.0,12.0,18.0,-0.20920458185013352,-0.35895499560242017,-0.09745729791727026,-0.30183906159466567,-0.15927897809722724,-0.2806337308362095,-0.3060986969135568,-0.27097256262495717,-0.35576633874340496,-0.18036349402251844,-0.5367550935944955,-0.22204993204592605,-0.633651943338246,-0.22760867426930678,-0.4824059886470869,-0.27390215387331535,-0.5111287966325724,-0.4012569375385318,-0.21916117772761742,-0.49081369265122604,-0.4423353264688613,-0.003949073370127846,-0.13967467821521432,-0.17561132584780803,0.1119487040408694,-0.3729863824934381,-0.15314490537985556,-0.0720060213621233,-0.32270594951424003,-0.04994849724924484,-0.04278924538028292,-0.15437700705274987,1
10.5,2.325,2.0,2.925,17.625,14.625,2.075,5.8,587.0,122.0,109.0,177.0,1152.0,941.0,114.0,376.0,19.0,13.0,14.0,16.0,20.0,23.0,12.0,16.0,-0.22165128613066323,-0.3603601440747305,-0.11858579324448822,-0.2639682059414824,-0.03548878505356107,-0.5087379414715996,-0.31290320399683724,-0.1889544855638828,0.012450133733445003,-0.16502334673598562,-0.32932353607762865,0.016084592575324085,-0.19161402147582743,-0.09806271384974524,-0.35180615976941876,-0.11752448076525146,-0.5201288879991804,-0.2864504371490362,-0.25894171889612905,-0.5377081798916223,-0.5057149147791514,-0.15656290661481523,-0.12717525064333882,-0.18371720369508918,-0.09618255341192765,-0.18395215893546635,-0.3077687856311459,-0.07309069295049642,-0.24370005159304078,-0.2606167740997611,0.08676915795603798,-0.1207857358667934,1
11.35,2.425,2.9,3.75,22.2,16.675,2.375,7.55,737.0,134.0,177.0,241.0,1562.0,1116.0,135.0,531.0,16.0,10.0,14.0,16.0,23.0,15.0,15.0,16.0,-0.3792201989423282,-0.29137709817806623,-0.0952295177764173,-0.21575970211827808,-0.13983242600666282,-0.24017256817972968,-0.008091959064990923,-0.3292162285562733,-0.2973336397862862,-0.2101953381897118,-0.22355925135920393,-0.4129845746727244,-0.3949469143270083,-0.14943756780350317,-0.11117954710993971,-0.2047205706610627,-0.5866490495609489,-0.36225926419842047,-0.12320562623197906,-0.46514665746282513,-0.37076480614890467,-0.17529531883133806,-0.20327788768715754,-0.564664207077054,-0.15546599002939143,0.02302701690102656,0.2114259748526978,0.015571797118951632,-0.6381771921100766,-0.4156969570840833,-0.1445331881920153,-0.02542609354064999,1
11.5,2.3,2.4,2.95,22.225,17.6,2.15,6.225,654.0,141.0,154.0,197.0,1537.0,1075.0,107.0,425.0,12.0,14.0,14.0,19.0,20.0,16.0,10.0,21.0,-0.36295529933600684,-0.3253114608297751,-0.3208548268862513,-0.12301155863458241,-0.2723913284561142,-0.3447386203558381,-0.3723491372202922,-0.210315499033127,-0.4835798588313482,-0.2975889175727223,-0.17137316906984554,-0.15752803349318212,-0.7818524915612864,-0.6321356175889001,-0.29929398487418,-0.3021874834804408,-0.6109334483942715,-0.30855353847914224,-0.4149149370591281,-0.3078383835067418,-0.5116695874591434,-0.4082787143965899,-0.43361319850589375,-0.3435865168629212,0.06941816378774741,-0.18564386446495434,0.09258190102183839,-0.4187934699349913,-0.41681018109584406,-0.15203718860396268,-0.051522192723507894,-0.13148978592125257,1
9.525,2.8,2.45,2.825,18.025,17.425,2.4,5.875,487.0,135.0,154.0,181.0,1048.0,985.0,136.0,375.0,16.0,12.0,16.0,17.0,15.0,19.0,15.0,15.0,0.08642280864659345,-0.2724763223681527,-0.04499382977342954,-0.15064766351007486,0.1678449063730484,0.023448714514117657,-0.13624393108116728,-0.3170581749857222,-0.20150787636525866,-0.24986538830201324,0.05681392660229474,-0.2354237974854271,-0.5603532351786272,-0.37944494944122586,0.009741109026533844,-0.12208501500818408,-0.23769365355909114,-0.25083334790016504,-0.2309108033882074,-0.41357654522042325,-0.32034778729410623,-0.3382416432004248,-0.3592241571502877,-0.39312415929036665,-0.2579526588334243,-0.20553547584617285,-0.24974830103276077,-0.24159276620531342,-0.25603213673711667,0.10803652336502086,-0.09193633449573176,-0.3219448238518745,1
14.375,3.425,2.15,2.85,14.025,13.125,3.8,6.725,929.0,189.0,121.0,171.0,888.0,821.0,221.0,433.0,16.0,10.0,15.0,17.0,19.0,20.0,14.0,16.0,-0.38803395926924894,-0.3263348982289557,-0.19214073813608556,-0.25241752331124395,-0.21493778510141776,-0.17313966376405598,-0.08835699666176353,-0.20584011651369094,-0.07370247670405314,0.10437026210613218,-0.0016963339341623473,-0.3228982573350393,-0.43009327521867763,-0.08935759968993111,-0.1338243211600362,-0.1723383760125774,-0.37231621384235974,0.030581211845215846,-0.04851035850352493,-0.20301701597133692,-0.38156343177381197,-0.31574521091239605,-0.29994527165577006,-0.45320575738878227,-0.24151499008378435,-0.007468628613157038,-0.16015929268256374,-0.14229372635910023,-0.49414777374874813,-0.3695224385891131,-0.1633677387365269,-0.4278441126599936,1
12.1,3.625,2.525,2.675,17.175,16.675,3.1,5.625,833.0,237.0,153.0,144.0,1112.0,1109.0,188.0,369.0,20.0,13.0,15.0,14.0,22.0,21.0,11.0,15.0,-0.48206570584601444,-0.44341229108716884,-0.11226214921940746,-0.18110530977706776,-0.5910409710904238,-0.4840484102230947,-0.16749001202646427,-0.21776253777613952,-0.37966518546237266,-0.351451501148331,-0.18923393361278,-0.2785937269068154,-0.34614684869907114,-0.2585807419862587,-0.47645445333689374,-0.38934940019391767,-0.5622489813885319,-0.1237320600864846,-0.12978871288909327,-0.26077254004031436,-0.7095470033758015,-0.5551148805543827,-0.3202870480219295,-0.3601190602588199,-0.3253094263257196,0.03447796414689541,-0.02483941990360874,-0.09095232606000339,-0.36461425706725703,0.031757898340561155,-0.0013633596188937953,-0.03837461509586471,1
12.625,4.35,2.85,3.075,23.0,22.3,2.35,6.5,818.0,275.0,176.0,194.0,1558.0,1456.0,129.0,401.0,16.0,15.0,14.0,17.0,20.0,20.0,9.0,19.0,-0.3131809079168872,-0.3095749501668543,-0.09482438775913987,-0.46312505810265997,-0.6142247462949929,-0.5780243530502027,-0.4421745798963309,-0.48600149859790226,-0.4742760084656543,-0.5572388222129637,-0.29204490896255353,-0.45317083268422564,-0.31830685367661576,-0.32760546351563696,-0.15184295479044296,-0.4026298373501706,-0.6544532235300813,-0.4050209281467345,-0.12702924944995048,-0.21956959919724636,-0.6520005442991881,-0.6604720926082441,-0.48280512895450745,-0.5666734652848271,0.05512297299918345,0.12053466607103289,-0.09943380045940588,-0.14955174892600648,-0.4450219707471238,-0.1753556313065184,-0.26648790488387114,-0.23612256137894647,1
11.075,4.625,2.8,3.35,20.9,21.825,1.825,6.125,645.0,284.0,150.0,184.0,1383.0,1196.0,88.0,385.0,12.0,16.0,11.0,11.0,19.0,13.0,10.0,16.0,-0.2532795299465994,-0.5599805337869839,-0.2083532882896036,-0.25931215116065187,-0.5086133597547285,-0.3761187919716497,-0.3193835184473272,-0.4270869925891709,0.062322113336757336,-0.2948501909527662,-0.04956225540997471,-0.3834278227600371,-0.05504029628719139,-0.36626693617912576,-0.16811266501765454,-0.2516485069891595,-0.3953044126637336,-0.16152010777830436,-0.2937274063601587,-0.3004448518344114,-0.08563676060450555,-0.3147053327667282,-0.23115529652436134,-0.4091672903378817,0.09485283850247953,-0.14358870985157654,-0.08967186339352025,-0.08702659675965548,-0.32539321921413167,-0.08700458729366267,-0.07932067993356132,-0.11139523546394461,1
9.5,3.15,2.425,2.975,20.5,19.9,2.325,5.3,580.0,209.0,138.0,155.0,1381.0,1230.0,150.0,357.0,15.0,16.0,15.0,17.0,21.0,15.0,19.0,16.0,-0.2632647163529745,0.018253667144362027,-0.05778300395153368,-0.08135700653385954,-0.3088584681385352,0.2922220514646749,0.033615735838126534,-0.06095103898498494,-0.19269864858869562,0.016628912829215033,-0.0187775192209391,-0.16038010308432135,0.012131914228280277,0.05420229640185246,0.07629641335926289,-0.035499539587831766,-0.5230231609057308,-0.19560283418568372,-0.3366892216593932,-0.42266296514307117,-0.24945846606115582,-0.011443014184713926,-0.21124115986725633,-0.36029600001128853,-0.4558867901341602,-0.04759883268713687,-0.22496058683387382,-0.42317768500361586,-0.4690601030657905,-0.33569738841589036,-0.541362685462952,-0.10989308531138887,1
10.65,2.625,2.275,3.075,18.075,16.4,2.35,5.025,591.0,173.0,141.0,218.0,1184.0,1077.0,143.0,273.0,16.0,12.0,10.0,14.0,16.0,14.0,15.0,11.0,-0.01224842857006148,-0.05265043859711951,-0.09104822844597682,-0.07738871820611222,-0.5463747054581644,-0.32474580138112835,-0.10398514857821618,-0.03780358063066129,-0.3063415054663517,0.019211499367915084,-0.22255188268337567,-0.41243539651546735,-0.5914957001398853,-0.25408679911209364,-0.2591421511876426,-0.5580321260398224,-0.7432553312481394,-0.5920868971292328,-0.3965969342960443,-0.3908460380820438,-0.6197376148241274,-0.52360451933112,-0.6152055371245844,-0.5105029824986,-0.22838577302266158,-0.05638662522738391,0.0004322479288957431,-0.4171723763133096,0.1171239096526737,-0.04149836247817276,-0.20532616969375705,0.20128755555032485,1
11.5,2.6,2.85,4.2,18.675,18.5,2.45,5.625,672.0,147.0,174.0,265.0,1123.0,1240.0,157.0,318.0,18.0,12.0,17.0,21.0,17.0,19.0,15.0,14.0,-0.134498873828673,-0.1139757195026692,-0.3389603447192133,-0.3612865645266513,-0.20389082358673008,-0.22874597133335103,-0.10068330455655125,-0.24039325123781774,-0.36543543285043856,-0.17007920022131506,0.25793242259124066,0.14460366007465572,-0.4681030797492281,-0.34243739910777904,0.18491681660949977,0.08552684502764578,-0.4880186943670227,-0.5175771095535158,-0.23447719725210728,-0.2838692375741049,-0.3552157198047748,-0.5806788539628239,-0.19047821811258325,-0.22630580276171283,-0.28629488467577197,-0.0041799719779393426,0.1165246653931371,-0.2012203363196371,0.0861162498166438,-0.1733716275833678,0.04361642742426596,-0.24911663766626294,1
12.3,1.975,2.275,3.325,15.55,13.15,2.25,6.225,723.0,122.0,140.0,210.0,969.0,779.0,157.0,433.0,17.0,14.0,13.0,15.0,15.0,13.0,13.0,21.0,-0.3011269328722673,-0.21710850840702972,-0.1257264465484267,-0.21423422093910166,-0.35818756703341276,-0.23316799520974407,-0.015266404138971151,-0.2243117429258366,-0.33288457180906894,-0.26693959280026314,-0.09263109873338808,-0.423821805257568,-0.4802975782222339,-0.4298257628918,-0.16848287592849254,-0.4624939055677103,-0.36048631602574077,-0.32623547086473265,-0.06816086275943399,0.059940010363594254,-0.11789453763835792,-0.2806673989100919,-0.1503405993687021,-0.34083121268358907,-0.36114278649936654,0.23923925931469028,0.2638191945200641,-0.14079414789538983,-0.3535061656289949,-0.10360208218903494,-0.04131351256818802,-0.16030925260866116,1
13.05,2.575,1.85,2.325,10.7,12.3,2.475,5.7,860.0,166.0,104.0,152.0,776.0,720.0,167.0,359.0,18.0,17.0,10.0,17.0,18.0,15.0,18.0,14.0,-0.4522364597719819,-0.13408882566343097,0.2807876786050256,-0.026093269213185125,-0.30150033521192376,-0.19552620028472636,-0.058980097279006466,-0.36244137371391316,-0.12146465338232156,-0.12658081163496285,-0.18550312185742246,-0.09516295461973677,-0.4098964401622671,-0.14867101230528754,0.09165958047738057,-0.13606068531003976,-0.4516020224348871,-0.19687566722913988,0.245519186263505,0.014925019910658975,-0.35614476116231725,-0.35036480855780555,-0.20260235672064594,-0.29317815136939973,-0.4998529352570681,-0.20764125976585493,-0.319949813174339,-0.4500241676243037,-0.27283442858155726,0.023268173966120662,-0.251072409165339,-0.14715330521250303,1
13.8,3.1,2.175,2.8,16.6,18.65,2.35,5.6,916.0,183.0,141.0,190.0,1171.0,1167.0,151.0,290.0,14.0,13.0,19.0,20.0,23.0,22.0,14.0,13.0,-0.4346233949197402,-0.4894912401789327,-0.08804937546785747,-0.29417986742110874,-0.4022557017910963,-0.5491980488999516,-0.2800209269484717,-0.2393364959493251,-0.49805531804962117,-0.3546002983420599,-0.3307973064500264,-0.11104581982860703,-0.8615864913335383,-0.41135696362399743,-0.1407763618768771,-0.1595662977040749,-0.5118058971239945,0.017126990543877382,-0.061563948691128675,-0.4421964810130283,-0.6829115172087794,-0.5210046497213543,-0.5734585363196513,-0.5477448470660415,-0.3650575372452465,-0.2120374858243538,-0.19723146638012776,-0.39255421084414316,-0.15136381956403686,-0.16176270836115958,-0.39117976876036537,-0.190533325490977,1
9.575,3.05,2.775,3.825,22.825,21.2,2.225,5.3,531.0,179.0,188.0,245.0,1445.0,1277.0,127.0,296.0,12.0,14.0,13.0,15.0,17.0,13.0,13.0,14.0,0.01442678442494469,-0.3799763012560702,0.04861093380260952,-0.30011288656714213,-0.16021929771402066,-0.067394665717298,-0.4022559678756389,-0.044580216440884765,-0.4872215710739512,-0.13808355891729684,-0.532486895672414,-0.41498958895311605,-0.6579468930044157,-0.3019496957334638,-0.4995674793056092,-0.4261901527352088,-0.46544098576117354,-0.3940851401587318,-0.3739221324010238,-0.34572372871435025,-0.6980273129645553,-0.5432885658545032,-0.8147826362588875,-0.6658509127694218,-0.15762195867398482,0.223809735698344,-0.2673730979025163,-0.3002961589784629,-0.2389767547531278,-0.22498652196019206,-0.42164077929735977,-0.2220067629195594,1
10.75,2.625,2.725,3.625,18.575,16.475,2.35,6.075,639.0,162.0,143.0,205.0,1256.0,1104.0,130.0,359.0,14.0,12.0,14.0,15.0,20.0,17.0,13.0,14.0,-0.2067129978304513,-0.27222916329644115,-0.1768822918945472,-0.309168257901312,-0.34932392990615213,-0.20303458248864684,-0.20972453401604724,-0.24123879351267746,-0.34216516063779917,-0.44533284578886556,-0.18288605552537676,-0.13594267552140035,-0.2279446573123594,-0.24627242783611364,-0.2223814309611632,-0.09773822807358702,-0.4898087341074597,-0.23266171405198055,-0.14243448885349244,0.007048324093760354,-0.5821585276020989,-0.40154104092099374,-0.1852391495014047,-0.17533959716429098,-0.08516599913643337,0.1365209316870254,-0.12740259922547126,0.003705865756814312,-0.16289208302972555,0.0802083789885542,-0.24155466772103829,-0.07144643515018612,1
11.2,2.95,2.725,3.85,18.45,14.725,2.575,7.45,752.0,169.0,165.0,216.0,1250.0,920.0,163.0,435.0,20.0,14.0,11.0,12.0,17.0,18.0,17.0,18.0,-0.31502308498800174,-0.06353113418298478,0.41158234807305194,0.010516123888875824,-0.37458200987338824,-0.1702849271641996,-0.18828768643451793,-0.2876118389592315,-0.265865813149341,-0.32432765852028766,-0.14148520699012804,-0.32367479991260134,-0.3095791212816692,-0.5107903531199643,-0.33306244483810477,-0.36411432864217386,-0.643368300015934,-0.4785569775213788,-0.17738133542179074,-0.3299326983713263,-0.37494147651178483,-0.6322590813689828,-0.2974679372846803,-0.4435331273271673,-0.45224552424021525,-0.1378926483049892,-0.19650103477458636,-0.18571922305561636,-0.21345736759813938,-0.11072718966078281,-0.02096921018498239,-0.2290431686360267,1
9.9,2.5,2.425,2.575,21.475,21.5,2.6,6.225,630.0,152.0,142.0,153.0,1393.0,1301.0,165.0,394.0,21.0,11.0,16.0,13.0,16.0,18.0,17.0,12.0,-0.40928112105475395,-0.24676035355941323,-0.23648175427319348,-0.34259170134083905,-0.35312135707801146,-0.23419930845450737,0.06417846137700123,-0.1430194876331764,-0.4818359450850094,-0.5615871275801074,-0.3837392049060798,-0.22933594060583737,-0.20047817648440855,-0.2654349115796914,-0.0866277595950348,0.10649602282534093,-0.4509816846409554,-0.41593235792248556,-0.3067140479348775,-0.5312650200045652,-0.6190459180034873,-0.7247619397436538,-0.5498900280438976,-0.5336924164138915,-0.6864707917741089,-0.3442553424934111,-0.4455375047558605,-0.38982398343050245,-0.2122096777259267,-0.07248483547534049,-0.06706566867065726,-0.31097317435554434,1
11.225,2.725,3.425,3.675,24.6,22.15,2.775,6.975,708.0,172.0,178.0,206.0,1464.0,1158.0,175.0,464.0,15.0,17.0,15.0,14.0,17.0,13.0,15.0,20.0,-0.45753644204988075,-0.42150209508664355,-0.24462763314848998,-0.4002203732570638,-0.35196990503998005,-0.33902179734381516,-0.08674680847438933,-0.29740405767514966,-0.0758156962621958,-0.018920394653975138,-0.32533107903993497,-0.2509084794312811,-0.1686631326379173,-0.02588180873213084,-0.3555051930795609,-0.2879745172514439,-0.20000080485607888,-0.5507613079284849,-0.14270367226086245,-0.4346737708441144,-0.285053457095737,-0.4307419754208221,-0.40431019062617085,-0.48392155740220616,-0.4603443478750455,-0.1703365156675325,-0.48695980516671183,-0.4790953716623059,-0.43206957006752567,-0.24742074494370697,-0.271607138943698,-0.32576603349314537,1
13.5,2.825,3.05,3.4,25.1,18.5,2.15,6.05,893.0,186.0,180.0,177.0,1624.0,1297.0,150.0,321.0,18.0,20.0,18.0,12.0,18.0,19.0,17.0,15.0,-0.5893420170457523,-0.34820051324022283,-0.41209290486091876,-0.20984763846698853,-0.6443568364437872,-0.6010729759127462,-0.283530583243401,-0.34435151592309954,-0.3975748968969116,-0.2637573002822163,-0.26960188785412603,-0.6005779152770396,-0.1298042780896273,-0.08817646123905976,-0.33847732366849437,-0.2012083356383382,-0.7185800100935332,-0.6066428249400156,-0.5593816747958387,-0.522105793639497,-0.7183419308824341,-0.5691341151136948,-0.5923614086727499,-0.6052850598215229,-0.6089123175202013,-0.3561174933710472,-0.3706479734875428,-0.33981136994565647,-0.3114662080092031,-0.0857763878662299,-0.43271066683842857,-0.41190753882972747,1
13.25,3.0,2.375,3.2,18.4,18.8,1.875,6.075,937.0,165.0,134.0,201.0,1220.0,1212.0,119.0,380.0,17.0,14.0,17.0,21.0,21.0,20.0,16.0,16.0,-0.5602756143180656,-0.22952840818587675,-0.19323314325165974,-0.2606882030932777,-0.04081621722635502,0.014060553788527047,-0.1769325869244578,-0.2362781539875759,-0.21078268470215453,0.17440769325339292,-0.11223230825863102,-0.267334285292086,-0.3684879872611236,-0.12614306967235672,-0.250471206178599,-0.2400039102798862,-0.3299053449802987,0.11240891541080122,0.14057894886372857,-0.2247908092135582,-0.5677527084460054,-0.2408922295912519,-0.2032425547552631,-0.2514940710344116,-0.19446174068080607,-0.05773432181786449,0.163875200465098,-0.05691135197647751,-0.4054715778927734,-0.023198200565869336,0.14810938914512742,-0.07292052009699837,1
16.175,3.325,2.5,3.7,23.75,19.825,2.275,7.25,1101.0,207.0,134.0,224.0,1556.0,1326.0,126.0,475.0,20.0,16.0,14.0,12.0,16.0,16.0,9.0,18.0,-0.5326268259045533,-0.07566895203538153,-0.0856779068751107,-0.03209292331901839,-0.3546898125441579,-0.08954284853180214,0.1266920608657986,-0.06919689138749388,-0.2946963789634392,-0.20289237818987538,-0.3235243652754786,-0.25055397148720343,-0.2918411162931566,-0.23963221801097928,-0.4752644814471294,-0.2970645835471376,-0.6133893294116027,-0.2336897827733941,-0.19913138668148708,-0.21654825422008675,-0.7785375969178218,-0.7048073050686664,-0.6022340783092286,-0.5622513528373163,-0.0217288511338466,-0.24223555957939896,0.09663205236300525,-0.5404102473389282,-0.1503199952098857,-0.29600736164816144,0.025698532044455585,-0.41487811500986344,1
12.1,3.1,2.95,4.475,22.6,18.775,2.175,8.1,802.0,189.0,154.0,280.0,1582.0,1305.0,113.0,501.0,17.0,16.0,17.0,19.0,21.0,17.0,11.0,16.0,-0.7451206403288959,-0.5813550986126723,-0.39027663202811386,-0.24559671483651144,-0.21510132809721416,-0.03438296129933678,0.26565668652904045,-0.1859066611149178,-0.06954558349060315,-0.37921718614568073,-0.03770524431213779,-0.29564929112740757,-0.23526353405576153,-0.1455346379014406,-0.09030226625047215,-0.24750788931880896,-0.5196336579387617,-0.16836970786815508,-0.0429912496753551,-0.12712409626391294,-0.5554937262329199,-0.3651817035525644,-0.16082910611746157,-0.2689148912422416,-0.03230574140085616,-0.1446465807393734,-0.10029582035990747,-0.2203262990349187,-0.36489023518808633,-0.1310653529076054,-0.302309181695797,-0.28575916256141376,1
12.675,3.7,3.65,5.45,19.425,21.05,2.125,7.075,802.0,251.0,209.0,380.0,1224.0,1158.0,119.0,448.0,18.0,18.0,16.0,18.0,15.0,11.0,16.0,16.0,-0.45499660303758827,-0.2473558310536423,-0.25173489304692337,-0.319427596806235,-0.6154083054414936,-0.37364177276987504,-0.1431941988776844,-0.1264449048101106,-0.343711918383313,-0.40409176956111864,-0.4383566451168904,-0.4951883566705656,-0.4120647731658008,-0.3201009342153627,-0.336793734964346,-0.4192050323280496,-0.20556667861155445,-0.3575716302682822,-0.13276823694756235,-0.3920512704480123,-0.2522285758442426,-0.4718005711038287,-0.2908509307160402,-0.527156923569156,-0.11375899696882469,0.025105524173233296,0.1468584836704525,-0.10266068305229852,-0.42081628557992823,-0.17784959427381755,-0.29960149697255944,-0.22484178935134091,1
11.025,3.35,3.35,3.85,24.075,21.1,2.475,6.65,608.0,205.0,219.0,249.0,1622.0,1357.0,134.0,456.0,15.0,14.0,17.0,19.0,21.0,19.0,12.0,18.0,-0.15533827569320902,-0.4526590357325238,-0.15997673952000419,-0.34347521879008686,-0.3928562531449198,-0.2059249828305585,-0.04550112970559104,0.08989438413749852,-0.5494181866528688,-0.2582245274245452,-0.2498193876667118,-0.5118968161719015,-0.4194526921552958,-0.02364130426959623,-0.14892152096887534,-0.46237061161800996,-0.48899108899617794,-0.4710575503684957,-0.30422190356043183,-0.522865359305691,-0.4891607143754878,-0.4390647340955126,-0.4009031772199341,-0.4928284504149828,-0.2092510339859238,0.13523087633895794,-0.07109905577975326,-0.22923493225455016,-0.49349759472951105,0.044853453994749465,-0.1246307395004848,-0.3541175702041306,1
12.525,3.725,2.9,4.475,21.075,18.7,2.5,6.85,779.0,232.0,174.0,285.0,1383.0,1113.0,147.0,456.0,18.0,15.0,10.0,13.0,21.0,15.0,17.0,19.0,-0.3630662773804765,-0.4108736506390312,-0.3061067013626967,-0.25809107839149076,-0.26184319939058254,-0.09569683074605335,-0.03608925502404051,-0.08493691260134502,-0.3402315309401255,-0.21897600539678655,-0.20593580967756733,-0.3729682062909757,-0.47390901101446,-0.34112544858775584,-0.37560743223309045,-0.3830238403485529,-0.5354512335724262,-0.419175289583523,-0.23732152129662365,-0.2616004634126557,-0.3278363901853058,-0.4104159045891777,-0.331424523771472,-0.3425927853892754,0.04161585060480378,-0.16821341580389107,0.35537231721586915,-0.3377637925709505,-0.1990020558413599,-0.14166491182935384,0.056414003819382594,-0.16846204231471434,1
13.875,3.75,2.925,3.9,17.675,17.3,1.65,8.35,904.0,237.0,150.0,218.0,1180.0,1005.0,91.0,530.0,17.0,16.0,9.0,14.0,16.0,17.0,11.0,19.0,-0.47039637116441785,-0.3831987806192227,-0.28379897383853786,-0.16466438841172581,-0.5181221448359536,-0.3378342341400207,-0.3770083521732292,-0.38936623636242357,-0.3260589163690324,-0.4273946798245235,-0.4188698976171715,-0.250945359715965,-0.2107964498633708,-0.2054404146529788,-0.22573199515537548,-0.055652053573924984,-0.4534910513476671,-0.46030060290968444,-0.24828045422882558,-0.2116503296850483,-0.36314779292532573,-0.5429815729713363,-0.4297778705467833,-0.40970783321839516,-0.041243773490840865,-0.07803412287466571,0.4711453773129708,-0.20938648002277968,-0.10241010727415646,-0.10449960368976896,0.14070397174103894,-0.3701512658468153,1
11.55,2.525,3.0,3.55,18.35,14.575,2.025,5.325,782.0,147.0,166.0,243.0,1226.0,947.0,99.0,367.0,16.0,13.0,14.0,16.0,17.0,18.0,11.0,17.0,-0.3780028470010054,0.0062217936548863255,0.025630581243608588,-0.17706028626735465,-0.3983294912178208,-0.27205095839712795,-0.13946167158796322,-0.005146453585472881,-0.35402895386162486,-0.18822729378863934,-0.4148128886074098,-0.2192938661576493,-0.44511851539957875,-0.009526147601438,-0.15188636667447775,-0.13339890799110715,-0.4289559710907458,-0.18693051358064258,-0.1343495958357156,-0.21938662059351216,-0.4688934534752598,-0.3576485726977894,-0.368606746695693,-0.30814303125772124,-0.32969861500344355,-0.2712959349059119,-0.2077068966041006,-0.4343426243735967,-0.3615652487477493,-0.13352394437983744,0.041890007944068705,-0.1891903814325834,1
10.1,2.375,2.45,2.675,17.725,15.85,1.675,4.95,608.0,145.0,137.0,139.0,1123.0,887.0,95.0,336.0,16.0,14.0,16.0,12.0,14.0,14.0,14.0,16.0,-0.3374081181136423,-0.25123206202102105,-0.30327202637077266,-0.3346607116032189,-0.21100332607893899,-0.08502867506083366,-0.006411823467574122,-0.2207954042967313,-0.2505689397297346,-0.5474158395811892,-0.21689587747892597,-0.239070917317184,-0.260852799653273,-0.4216723456992681,-0.33759972666400634,-0.25743514276892837,-0.32805864857559136,-0.21702840277035823,-0.25903017617876034,-0.14945675635870845,-0.3202737137672759,-0.37697947864157094,-0.4997322502460275,-0.1466706572086001,-0.31008518478787045,-0.07528851125677563,-0.24814496402799066,-0.3047132705150413,-0.7559380647457357,-0.5438438590654181,-0.3713106673645728,-0.3596884372722139,1
11.375,2.85,2.725,3.175,19.2,17.15,2.325,7.55,664.0,157.0,173.0,202.0,1116.0,1046.0,136.0,522.0,18.0,16.0,15.0,17.0,13.0,11.0,17.0,17.0,-0.16699890574557288,-0.2916621392245138,-0.08286566373721735,-0.3682956204773789,-0.11137186984708021,-0.1802935121380202,-0.006953918007988499,-0.3623718668374441,-0.32283046837906854,-0.24278682080041117,-0.35316906349984933,-0.44933048813270393,-0.4977804694459804,-0.22810459190825805,-0.40173792584458634,-0.33245472989268876,-0.45742077820984217,-0.4913105341762772,-0.4656050488113697,-0.49404460080122403,-0.518351268217019,-0.46195481692297957,-0.5424536102685995,-0.4817154133057619,-0.31380706988044765,-0.10988086768648977,-0.07249227357701639,-0.2173720864177197,-0.4248469145731022,0.04327118454540949,-0.32100916350274383,-0.31113419223977096,1
11.8,2.7,2.625,3.775,18.4,17.775,2.75,9.35,666.0,146.0,167.0,258.0,1154.0,1075.0,168.0,656.0,12.0,14.0,15.0,21.0,18.0,17.0,16.0,15.0,-0.18134306437726774,-0.28138939833376503,-0.38295149705064396,-0.17153020230920865,-0.07886222022297328,-0.2095334272530183,-0.14523631471845036,-0.4684030869322247,-0.4372808715940859,-0.16797988934196265,-0.2017593601396606,-0.2993700124103393,-0.9330766029869437,-0.724913457477203,-0.6124018652371036,-0.4761048676020752,-0.5455813286005697,-0.514149203310995,-0.295372849836679,-0.40219988191327555,-0.5009500852814108,-0.6309933564273578,-0.24854849086855008,-0.32367186649430646,-0.3523053591535948,-0.33470092912939153,-0.13376070372477086,-0.08972667756256592,-0.5375659800689966,-0.28683926795808473,-0.3385139890325276,-0.35840250301563087,1
11.375,2.825,2.775,3.35,15.275,14.525,2.325,8.95,698.0,177.0,155.0,213.0,888.0,849.0,133.0,565.0,16.0,17.0,11.0,14.0,13.0,14.0,14.0,17.0,-0.3125199009932665,0.1727507805524004,-0.15485403298198339,-0.40453292542152836,-0.5383290561367589,-0.24182560245092416,-0.27174245451881934,-0.3467811939995639,-0.49348467997288026,-0.5688298746441741,-0.5398762925915569,-0.4719191886208093,-0.534491817090695,-0.5473916511145132,-0.4239327121159806,-0.5117346641507408,-0.2982875172100786,-0.14405814634022482,-0.07827337219811296,-0.18542257479489774,-0.350348949335338,-0.3322834061199036,-0.43783585627984883,-0.3346230125055072,-0.3261441924150943,-0.30991742182258786,0.10317683197137785,-0.13831713843513402,-0.5408381436117254,-0.3858665078715165,-0.2651583638119346,-0.33254044973659025,1
10.525,2.625,2.6,3.65,13.55,13.375,1.95,6.425,686.0,162.0,140.0,230.0,813.0,763.0,105.0,365.0,19.0,16.0,15.0,17.0,19.0,17.0,12.0,12.0,-0.22891868239918492,0.03812913454069103,-0.08847322591807562,-0.18235031281728928,-0.6227019969402556,-0.3006639396298142,-0.06022410851706516,-0.052274989871113106,-0.0656448006875036,-0.033695540819199454,-0.21526541007982802,-0.09423322415814368,-0.2415328615313703,-0.06015689596819412,-0.35152212291573587,-0.1400223575077239,-0.3874368235155898,-0.20397435068710904,0.009900115489432046,-0.1382582316514464,-0.127604480083493,-0.24951573560312962,-0.1256705126892866,-0.2599034650651644,-0.1460049381658746,-0.11686550362587064,0.10342037165325592,-0.04310190040983976,-0.16222114244847638,-0.32149907993389853,-0.03618873006717808,-0.28064771662520316,1
10.025,2.55,3.5,4.225,23.45,20.525,2.55,8.1,736.0,139.0,185.0,248.0,1482.0,1193.0,144.0,564.0,19.0,10.0,11.0,14.0,19.0,16.0,15.0,17.0,-0.7867095484787594,-0.39105696789023814,-0.49716885617520806,-0.30690649560567873,-0.2615781288641464,-0.2821380903871308,-0.49356231533571415,-0.22148333801377204,-0.21091610294319507,-0.3027478433364922,-0.433164188282381,-0.1784867571588016,-0.3488872300929679,-0.3712189434418744,-0.5506355980573704,-0.12999618285669542,-0.5444429002499093,-0.37275034344848795,-0.4901301203769678,-0.47640679133626623,-0.46297721436933825,-0.47419563054250036,-0.7025763118364863,-0.332705529077015,-0.23576174677540887,0.025226335683816332,-0.4242449164978249,-0.3086262987211869,-0.56536093111703,-0.18906654840494738,-0.19629657951672908,-0.22516634660286683,1
10.75,2.55,2.95,3.9,21.275,18.8,2.925,6.55,669.0,141.0,153.0,233.0,1366.0,1081.0,186.0,464.0,18.0,17.0,10.0,14.0,17.0,15.0,18.0,21.0,-0.38632502114335954,-0.44727836412141364,-0.17412666814499342,-0.38859620379589416,-0.47644361599893026,-0.6095865535066076,-0.26553101950461505,-0.23154486315106645,-0.13391591926735996,-0.3985258497366533,-0.2861919574262601,-0.14856841193270326,-0.3183901767933193,-0.31138933995651513,-0.4148330917731609,-0.15576843379743133,-0.5531821409602782,-0.37565795832185267,-0.37528215637745327,-0.3554635753431518,-0.05019236484631697,-0.8463634397815077,-0.08263358703556145,-0.3206723847773774,-0.3334263383248398,-0.06519494312573347,-0.4014130164107425,-0.06908378856369957,-0.5194393202120523,-0.18827928716094386,-0.1407058476165684,-0.026723489601193258,1
11.325,3.175,2.8,3.25,18.95,16.775,2.7,6.075,796.0,176.0,173.0,192.0,1259.0,971.0,183.0,359.0,16.0,14.0,15.0,11.0,18.0,18.0,16.0,15.0,-0.37614209513369684,-0.16851910329966777,-0.2736254994528227,-0.25554251805088546,-0.502610650116688,-0.6478086808452044,-0.5561654844980995,-0.2516000650061326,-0.5237579659559132,-0.3852481666614588,-0.1347848412024205,-0.15781355116817003,-0.4122779989399203,-0.2999587755938985,-0.2656674287231739,-0.2998176055752422,-0.5533073231896644,-0.39732801368862936,-0.6344578245894154,-0.2110584153111841,-0.3318724937815832,-0.36480015451328246,-0.23723853773750245,-0.137118243714449,-0.4174019752051866,0.21532374272193563,0.0858614002648707,-0.10271354372763343,-0.30889593939209603,-0.26502867769683847,-0.2765933657580613,-0.24936229173915475,1
12.0,3.35,2.95,3.4,19.2,19.125,2.25,6.925,725.0,190.0,178.0,209.0,1302.0,1263.0,124.0,402.0,14.0,11.0,15.0,11.0,18.0,19.0,7.0,16.0,-0.3671549151865783,-0.1539399656409899,-0.2897377610060489,-0.22772836813678982,-0.4075906321285957,-0.5205759617862484,-0.5248780252051232,-0.2855375292732167,-0.5762365428466215,-0.5644959054759366,-0.22039642066921855,-0.13976153920013537,-0.5064866992545018,-0.3783148821282364,-0.22983361338178235,-0.15332185746211957,-0.811258295385781,-0.6313106730693443,-0.5895904672787052,-0.4623134973484208,-0.7271158416788337,-0.6805110779578928,-0.41771982064858887,-0.2180306247556034,-0.26877185843643886,-0.03190605276348485,-0.16209013177305653,-0.08477051252819794,-0.22438149622333783,0.24856297463365784,0.1385864564762721,-0.13876052151740773,1
11.675,2.9,3.125,4.15,16.825,12.025,2.075,7.625,765.0,168.0,168.0,253.0,1143.0,795.0,128.0,510.0,18.0,17.0,15.0,15.0,20.0,16.0,12.0,15.0,-0.5038584049162,-0.21572839111975975,-0.3136815033917123,-0.12148443981179093,-0.17669555737255285,-0.07812391638092023,-0.22522448673156426,-0.22981272183954654,-0.15169515124468977,-0.09396294889685308,-0.20392332479370476,-0.09133660894443482,-0.383917611409478,-0.26867382543317403,-0.15140565068500653,-0.11136588489609775,-0.5285447202942467,-0.27352820679745943,-0.2214821529053022,-0.45549715601176105,-0.3195945633838117,-0.2660964373986163,-0.1697690822063573,-0.3758265876131572,-0.2842824174191957,0.05548373315192051,0.11265417631433199,0.09616094035684968,-0.5140518302988861,-0.22417654475695922,-0.01195358573910079,0.06199635104889156,1
12.45,2.775,2.625,3.575,18.225,12.25,2.15,9.375,736.0,175.0,140.0,192.0,1254.0,741.0,118.0,609.0,14.0,15.0,9.0,13.0,19.0,14.0,16.0,16.0,-0.42364762052581456,-0.11625210844221037,-0.3502604512437462,-0.3545945403227698,-0.28426342365809415,-0.15508772141675434,-0.2430520411100086,0.023956670204121195,-0.09354883148194727,0.00741222341085119,-0.05544100268744115,-0.0388303551994935,-0.1758376342148116,-0.20798589993262948,-0.06927059594926899,-0.17022657307923506,-0.5286563373452166,0.13393548968413743,0.2291162732906933,-0.17077956465686203,-0.22411162350193203,0.0184699602604374,0.05166267793915065,-0.2684109948811869,-0.0874004925791761,0.025524485553660936,-0.021096383323892052,0.10487016941933239,-0.44683194936990933,-0.19877725211713865,-0.2166894251540441,-0.30345655756915746,1
12.225,2.725,2.45,2.675,17.5,14.975,2.125,5.8,736.0,175.0,155.0,173.0,1108.0,929.0,124.0,335.0,17.0,16.0,16.0,14.0,17.0,14.0,14.0,16.0,-0.2448140255460097,0.07913646822400741,-0.3040683947755244,-0.43956912671078713,-0.3751775279246378,-0.45589878672070605,-0.10760925832502835,-0.3219991014388144,-0.33705718650038713,-0.22027282900556944,-0.174551353959356,-0.3501506331453532,-0.35774287424778084,-0.18786679302810286,-0.24311661657226916,-0.3092431973191979,-0.5055783408114386,-0.35200722757954833,-0.3584042831352712,-0.2143759408101051,-0.29977862856080867,-0.1748683782342053,-0.14011354510044394,-0.40964753684979344,-0.057699089427750004,0.0307903729944183,-0.11415080125600334,0.19449420744938242,-0.4034497915363715,-0.03722417974354033,-0.3495843582401086,-0.2848639718019896,1
12.275,2.7,2.2,2.925,18.25,18.15,2.525,5.775,732.0,171.0,152.0,183.0,1213.0,1102.0,143.0,371.0,18.0,12.0,15.0,15.0,17.0,17.0,16.0,19.0,-0.3428991303847127,-0.235939267869855,-0.5698749584941305,-0.2900871524289608,-0.22041502085209777,-0.25151491236164114,-0.19018631122083815,-0.36265127069632896,-0.5231501572402364,-0.4459211998782938,-0.4782275857829875,-0.5234810075139986,-0.4584560793580539,-0.39583995704359143,-0.37789410168682497,-0.347580839903845,-0.48375183427917157,-0.13535290424738347,-0.11855929619565762,-0.45591841301831637,-0.378466784513031,-0.31476104912830555,-0.23513641466232255,-0.6772775721213052,-0.1012733317148064,-0.10323835746339335,-0.030319329646485055,-0.46554542730909676,-0.5818623181365667,-0.23921543648985155,-0.31918176898762607,-0.4728149187600744,1
8.5,2.975,2.125,2.5,16.7,15.175,2.525,4.575,547.0,200.0,137.0,147.0,1181.0,831.0,155.0,269.0,19.0,17.0,10.0,12.0,21.0,14.0,12.0,17.0,-0.49295062552726704,-0.29216428445004683,-0.15236889941262527,-0.11807445431862561,-0.2772714928149944,-0.35967850044708227,-0.16144715227258244,-0.3330374390103932,-0.4242846628503883,-0.35147847621668804,-0.2676674547974848,-0.30301351904924523,-0.17045970435503754,-0.3363757569666185,-0.2726937276944263,-0.2561486047274983,-0.634062380891207,-0.4735930992907659,-0.34244615881599394,-0.42792743967753316,-0.3385295270412436,-0.47014852948367225,-0.31035092281629123,-0.33778063442135253,-0.1115751760162776,-0.1745031503765842,0.02521771511102278,0.19431405684352396,-0.1945464959145121,-0.0776346979095467,-0.15119720824159852,0.007549916257443909,1
10.825,2.425,2.775,3.325,15.3,14.05,2.35,6.875,737.0,147.0,165.0,212.0,1032.0,861.0,131.0,419.0,20.0,15.0,13.0,19.0,18.0,19.0,10.0,17.0,-0.6074211359535487,-0.3582377899780739,-0.4614098718899422,-0.3588717789704913,-0.31812845139867685,0.10444840338118332,0.005020017696635118,-0.3006528067742957,-0.33638321024838996,-0.33539985054019167,-0.18566369509107733,-0.3746679543043693,-0.45807886848770063,-0.46112420314973995,-0.2555973299014428,-0.5714143649236858,-0.46309732283878485,-0.21718212805622084,-0.3890036061949879,-0.4980286047542173,-0.4427891430330079,-0.32156456013662754,-0.49962051268383134,-0.43273389467619794,-0.09386903541121096,-0.06474502683770904,-0.07961436779771856,-0.11923541731850332,-0.4817162819928385,-0.39980065338971577,-0.5180114529125618,-0.3193829651370725,1
15.575,3.625,3.6,3.775,16.525,18.925,2.05,7.75,1041.0,223.0,239.0,235.0,1175.0,1206.0,120.0,418.0,20.0,20.0,20.0,14.0,22.0,18.0,12.0,16.0,-0.5916023759697981,-0.3216615232794335,-0.1387266562225513,-0.21729363134712762,-0.5591409892991853,-0.12617124140393038,-0.5669226438230096,-0.516166726486328,-0.6103799279839739,-0.10438138705011163,-0.10922653079110392,-0.15029989434661353,-0.5451318260100827,-0.39135338398017894,-0.2567927921882783,-0.3353453601912679,-0.7263383596602295,-0.3231956100844929,-0.3162563155495501,-0.16205355432185098,-0.6422418256509986,-0.3084200547423666,-0.5026375243122831,-0.30569238059630927,-0.09422078220560326,0.1311809509719462,-0.03441417291836368,0.11572980653910345,-0.2551104570057435,-0.25359995658864753,-0.3933116255127847,-0.2548723228775508,1
12.425,3.4,3.5,3.6,20.025,23.85,1.775,6.85,817.0,215.0,225.0,210.0,1264.0,1426.0,104.0,452.0,16.0,17.0,14.0,12.0,16.0,13.0,12.0,21.0,-0.4268315916663005,-0.0919628610856915,-0.2484679235659627,-0.1409915102504147,-0.33845713645437947,-0.07090430736708565,-0.04310085668337006,-0.043405441244082806,-0.6769525513840454,-0.48964879291203856,-0.5926815395600799,-0.22733145999222443,-0.49166599228062413,-0.4820181865011486,-0.6621482698967559,-0.3074118022488518,-0.4620811665340971,-0.36560442666366433,-0.31459631030737084,-0.19464279842917243,-0.6090803674717239,-0.5494164284779124,-0.6898842086428089,-0.44231533641044624,-0.004957296077788274,-0.19417522236004547,-0.13289711711352364,0.02995414340677158,-0.5564850103206042,-0.19932413037070437,-0.16326633145130548,-0.04207551683154878,1
14.825,4.325,2.775,3.4,18.275,18.475,2.475,6.625,956.0,295.0,150.0,196.0,1272.0,1225.0,146.0,443.0,14.0,14.0,10.0,18.0,18.0,20.0,14.0,15.0,-0.33779154536439965,-0.2754399132508997,-0.10257754021294205,-0.4969715073595525,-0.517754756366587,-0.15421050704954412,-0.10872194767732372,-0.3143303609584604,-0.16547338169647294,-0.256828708796997,-0.032876433298342306,-0.1540430212721752,-0.3913537914977271,-0.1739979609261441,-0.18237910967314785,-0.005611152716437248,-0.6303982337520333,-0.514697448420719,-0.14664804783236202,-0.25731231357324424,-0.5510940796432512,-0.642470113898598,-0.2936831864970179,-0.30664893153596423,-0.3069651557949624,0.20945097869493554,-0.263513106071395,-0.2850398009479506,-0.44037953893874876,-0.24611562845062762,-0.2373723442595024,-0.13758845638154016,1
12.25,3.65,3.0,3.225,17.15,19.7,2.425,6.35,767.0,224.0,201.0,225.0,1059.0,1258.0,160.0,409.0,18.0,13.0,16.0,18.0,18.0,17.0,14.0,15.0,-0.3465983732600952,-0.4028621613426267,-0.24660351800423916,-0.2977814495226337,-0.5614150589421952,-0.3112289115248382,-0.30918707008418894,-0.29579508559818257,-0.5934270330080484,-0.3025463907021075,-0.1879323255876714,-0.31410770238975777,-0.7564861591659501,-0.29078458896252246,-0.18101929801152358,-0.15852793363083859,-0.4102674912652901,-0.3961229916274646,-0.1729304345231758,-0.46478804242662924,-0.537428242951073,-0.49862662403343627,-0.3581441989977745,-0.4592874380018512,-0.4690333199415349,-0.07989740517439298,-0.31977685571045067,-0.4614986666378823,-0.27538558100786026,0.13387708663763162,-0.14249860948865636,-0.20027359041779522,1
10.925,2.925,3.05,3.75,18.6,20.075,2.75,6.45,723.0,182.0,188.0,237.0,1100.0,1248.0,184.0,448.0,20.0,15.0,17.0,18.0,15.0,17.0,17.0,21.0,-0.3644977632191692,-0.039228082614751546,-0.22246082280412358,-0.37947646209405195,-0.49213646173209796,-0.09763114214364872,-0.4993839045100733,-0.6234517623735631,-0.3971414551781404,-0.1724044109989661,-0.24692302673782277,-0.274464944840964,-0.48785384703063905,-0.340007079059949,-0.22292823801394893,-0.3544244135715607,-0.4073011176160606,-0.22896062909346837,-0.34408731125150027,-0.6614040712830913,-0.35970849060779236,-0.2823203833260194,-0.39165840277860003,-0.6064788358759567,-0.4173267617620681,-0.02184626520589283,-0.025900606419892083,-0.1021437017257753,-0.6595388382514676,-0.3977050792842804,-0.341423156143124,-0.19632656829489567,1
10.35,2.875,2.975,3.825,17.9,19.475,2.85,6.525,717.0,181.0,177.0,258.0,1105.0,1192.0,190.0,412.0,17.0,16.0,14.0,14.0,18.0,18.0,17.0,21.0,-0.23041581197218544,-0.03230319864817756,0.06403834574202674,-0.35447170644333853,-0.44894840007074766,-0.5769506226396294,-0.34615179805884205,-0.3745010664542757,-0.32290054850328226,-0.43363249759897043,-0.3347427137398937,-0.31955555919913886,-0.5358656504669046,-0.4392923711919986,-0.37003221197816494,-0.305269474967357,-0.4427392833496056,-0.5115481714641087,-0.3855085416942584,-0.5124088506613306,-0.24222222094383652,-0.2542463418167925,-0.32123669460504173,-0.3386007691734332,-0.45172702347410915,-0.07168724914957873,-0.03231264069647303,-0.3569850595093341,-0.5329883675678834,-0.15987784555118406,-0.007152224392525078,-0.1459442454523703,1
12.35,2.825,2.45,3.225,18.175,22.825,2.7,7.475,720.0,178.0,148.0,201.0,1158.0,1362.0,147.0,513.0,14.0,19.0,11.0,14.0,15.0,17.0,14.0,17.0,0.11431150469533284,-0.36534272735707574,0.034905080185785406,-0.1664189857639672,-0.3985582751665848,-0.29006342378645295,-0.11867289219766665,-0.08406181708711383,-0.4997247817153152,-0.48794730285106214,-0.37048346521864367,-0.3322351230642637,-0.4006986729736481,-0.37396762298906466,-0.2617182598649747,-0.37623268075354094,-0.24361036837203803,-0.5049296223993783,-0.18504861316306262,-0.3578775235479263,-0.29689161183993995,-0.6077633350654895,-0.3103138735474479,-0.49917153084725424,-0.07128410271472213,-0.41296832497219194,-0.008829766985813444,-0.5549757937355682,-0.45068886285060833,-0.17168078756675006,0.1293438070607997,-0.17259252686209234,1
11.4,3.4,2.825,3.675,18.625,20.45,2.0,6.825,743.0,205.0,145.0,215.0,1178.0,947.0,114.0,449.0,20.0,13.0,15.0,15.0,16.0,10.0,16.0,20.0,-0.6056048767061939,-0.36998718932056535,-0.43109331869219336,-0.25607636191522404,-0.6247476746103827,-0.5652561493138597,-0.3127450156839592,-0.22154207507117518,-0.30335931527915255,-0.5415063106289135,-0.3630709268389995,-0.4458548682267189,-0.27976034445770626,-0.35216423119874496,-0.2521495072812475,-0.48330096591415184,-0.48606500696238236,-0.4822217865477797,-0.35750906597253,-0.21811859593501517,-0.16458408123595247,-0.6509656247393906,-0.3210078202287299,-0.5452432678025302,-0.12430911091242126,-0.07811740982265179,-0.06912801183775942,-0.2324141287175062,-0.2508751597383762,0.056344094451066286,-0.010619098785470816,-0.1794674337943226,1
9.8,2.3,2.475,2.85,17.7,18.25,2.1,5.625,629.0,112.0,118.0,136.0,1090.0,976.0,137.0,364.0,17.0,12.0,12.0,12.0,19.0,15.0,16.0,15.0,-0.40032311004673915,-0.03973950686836803,0.06701684706706922,-0.05644813211707208,-0.05877703312105675,-0.44213811707936435,-0.11949989078755444,-0.4228673183124057,-0.08050340034650223,-0.5024058644793649,-0.3048760958951298,-0.23287742153772012,-0.010872696060519407,-0.31748259034422316,-0.2109032569182882,-0.3646849178656374,-0.521068195725068,-0.7275426274381119,-0.3599991201156422,-0.20956137089532678,-0.1855766335643836,-0.6259067172816893,-0.266766951161142,-0.2289875275700387,-0.5306561894120787,-0.4711662450989732,-0.19332155338591525,-0.43293078385270056,-0.3901573658727649,-0.168066587864623,-0.2603021781940777,-0.19818329026221443,1
15.175,3.275,2.5,2.5,18.6,18.9,2.8,7.575,1030.0,208.0,143.0,126.0,1178.0,1190.0,175.0,471.0,13.0,18.0,16.0,12.0,18.0,16.0,13.0,14.0,-0.4819878894701263,-0.4745156024994228,-0.2764932347549016,-0.3394144653276769,-0.32006670746846,-0.370486401311144,-0.18995232460662057,-0.25156606048440433,-0.4321151812540195,-0.6513423454554487,-0.43087544728926347,-0.3716771852095757,-0.04381696786334883,-0.6288434281191398,-0.13354713493857587,-0.27370764135364656,-0.31039958728915024,-0.6278918410702983,-0.134241023428096,-0.46768987035589193,-0.31666718543930616,-0.6961281598593695,-0.17749571254413177,-0.5511461806955076,-0.3773654202774858,-0.17851111270125147,-0.31430517994652213,-0.42606176302522164,-0.4072057599304951,-0.3013360990553623,-0.4901173298161154,-0.2638014557486645,1
15.575,3.75,3.725,4.575,19.925,23.275,2.075,6.6,925.0,219.0,204.0,273.0,1305.0,1385.0,111.0,407.0,17.0,14.0,14.0,16.0,17.0,13.0,15.0,18.0,-0.4713203383285408,-0.3110102165984127,-0.4265130016437321,-0.17393335527307588,-0.2715234186948372,-0.4721447866202863,-0.2282721077865437,-0.40457603763208727,-0.261554678370419,-0.7178732076952508,-0.19030822303631278,-0.5664478294586379,-0.42181424046909666,-0.6480933579497192,-0.2702303379898491,-0.4568172120094219,-0.5432925803027938,-0.7706904401061624,-0.4086485169698297,-0.5100779754720538,-0.6044562466128055,-0.8013048973387941,-0.5982267902561226,-0.5230099037943639,-0.026440647326044703,-0.19604235334738868,-0.10763640698291643,-0.020045785189874227,-0.1947048172167908,0.08496398857884263,-0.3322786329831261,-0.24213313681623508,1
14.75,3.525,3.225,4.1,19.175,16.725,2.275,7.525,869.0,224.0,193.0,237.0,1231.0,984.0,101.0,462.0,13.0,17.0,21.0,13.0,17.0,17.0,10.0,18.0,-0.39877737830096993,-0.18926084639408444,-0.3770508769099368,-0.3560801633832258,-0.30143031413220384,-0.17415819389547593,-0.19268493894762082,-0.37492973388334716,-0.43294439165590864,-0.346367966145315,-0.28962506690155093,-0.302747389387591,-0.48455944825560504,-0.4429508062053714,-0.45104951090576295,-0.46887248863010805,-0.35905780655710023,-0.02668832109641185,-0.3431965155692904,-0.3096098267312036,-0.2490205985894638,0.014409474411093335,-0.2952767156461741,-0.3451560130168831,0.2778810210178941,-0.14312681757143847,0.16982725084615108,-0.36463242744335905,-0.34044550706379906,-0.13245671976036236,-0.47482810537657505,-0.2947203502339389,1
10.7,3.175,3.125,4.025,19.625,21.825,2.275,8.425,715.0,213.0,180.0,233.0,1186.0,1297.0,125.0,517.0,17.0,19.0,15.0,13.0,20.0,18.0,14.0,16.0,-0.5479228242831282,-0.3931777631957197,-0.03755738947917545,-0.2923793742075596,-0.6568468168698219,-0.6065275669880894,-0.37284662377603656,-0.25733855381697956,-0.27825854130749744,-0.4977022681178317,-0.2910782459311841,-0.4654447436075356,-0.31109913061758826,-0.40751730669763037,-0.4002545313146704,-0.3468929618496878,-0.3204323184547925,-0.4649494684947228,-0.2217492038131946,-0.26548272883608387,-0.3455206042239274,-0.5885348501006289,-0.30089953365553207,-0.29812153154532756,-0.03294321650759045,-0.20104146834045328,-0.18121138195726297,-0.26744910694282625,-0.568277541635734,-0.45502559577212776,-0.15220371119902404,-0.14320284492692437,1
