0,1,2,3,4,5,6,7,8,9,10,11,12,13,14,15,16,17,18,19,20,21,22,23,24,25,26,27,28,29,30,31,32,33,34,35,36,37,38,39,40,41,42,43,44,45,46,47,48,49,50,51,52,53,54,55,Gesture
26.975,3.2,4.225,9.85,10.1,14.425,29.175,17.225,1958.0,183.0,259.0,655.0,667.0,879.0,1819.0,1172.0,21.0,12.0,14.0,18.0,19.0,19.0,16.0,19.0,-0.9546206237606335,-0.5258928652823596,-0.20302181789485907,-0.27428990038605366,-0.13071191752795802,-0.026552218347152615,0.06797579792125905,-0.014263664230116695,-0.34856724883697615,-0.032750359055728644,-0.019130801715484935,-0.10135960728469512,-0.6016557087892503,-0.42214243914096683,-0.490578923941707,-0.3753962365671162,-0.732748071337463,-0.6098690411675293,-0.36656841967448767,-0.4463749809372229,-0.5474680078195588,-0.5027689919725152,-0.1897132882580007,-0.21359115666441075,-0.4353417930402643,-0.2980787060936675,-0.4088925057488417,-0.21606230801280768,-0.5770595137687713,-0.4570040990410635,-0.37557674670927993,-0.4117442259110087,0
27.375,5.15,3.9,12.7,12.025,25.9,51.875,29.1,1658.0,341.0,228.0,807.0,812.0,1632.0,3148.0,1933.0,15.0,17.0,12.0,18.0,19.0,20.0,16.0,22.0,-0.531314471940754,-0.5203176594097242,-0.3335252175547745,-0.3545551393219004,-0.3713196281260036,-0.3370119211521659,0.11972345295685012,-0.1508803715462849,-0.08361704302922159,-0.202634583235735,-0.14335932463266568,-0.1978438580736049,-0.6115959665417806,-0.5662531612070558,-0.5501058146444272,-0.40581375011327453,-0.6509953295271514,-0.5158055611969633,-0.2421518143543151,-0.2850434698405581,-0.7837621002084095,-0.8364412853787946,-0.3993501887076417,-0.2568128070686087,-0.21088397963122993,-0.23112556890566438,-0.13570997399800738,-0.1712428555734998,-0.4495133047210183,-0.221749332386568,-0.1354273156821883,-0.3528755653366549,0
28.275,6.075,5.4,14.2,19.1,35.8,67.775,36.825,1944.0,377.0,320.0,886.0,1143.0,2256.0,4254.0,2384.0,23.0,18.0,15.0,15.0,15.0,21.0,21.0,16.0,-0.5682156545573007,-0.18262505422154343,-0.11781587637803327,-0.19226563254300075,-0.4137265606056725,-0.3255321703660956,-0.10201228963272642,-0.050478371267583914,-0.2943889534978292,-0.35086449966586086,-0.3351469227571939,-0.22623098708652103,-0.47968044323597914,-0.38953472126557737,-0.6066865286007338,-0.2574585537382694,-0.34804051827679733,-0.52450250868703,-0.3068531078267074,-0.4472967884363931,-0.5371217007078963,-0.6214949193082745,-0.400506760887604,-0.46660594208535017,-0.4923005704066691,-0.36966544130077383,-0.16116093474356932,-0.3443390101573725,-0.4176830919489356,-0.3858474079096378,-0.21409395074017795,-0.4430733073587557,0
23.475,5.1,3.725,11.1,14.475,31.625,76.125,32.7,1495.0,332.0,215.0,705.0,876.0,1700.0,4951.0,2161.0,17.0,19.0,13.0,15.0,16.0,15.0,21.0,22.0,-0.6355634222484337,-0.4516232801172782,-0.29197307914651666,-0.25860915644379107,-0.2946546191129433,0.002171390166067349,-0.027534194524564716,-0.3979286265208651,-0.26401130974575904,-0.15752970537551983,-0.1540855972640409,-0.3482395992801738,-0.57458794858839,-0.2746195365953258,-0.44726362416027027,-0.45082976059194974,-0.5164436147335358,-0.46599800518614215,-0.31194978040065996,-0.30528959034567765,-0.4444787971090609,-0.6489395009862023,-0.4296499705459911,-0.6155725416181511,-0.5886287950157436,-0.07432205475491463,-0.1416939907925456,-0.40200011613268,-0.5011647913427337,-0.10255363476015086,0.13598194631147867,-0.007709760216213352,0
26.7,4.925,3.7,6.45,10.125,20.7,66.925,27.15,1840.0,319.0,230.0,393.0,665.0,1358.0,4736.0,1915.0,21.0,18.0,17.0,13.0,13.0,18.0,19.0,18.0,-0.6688775278754964,-0.43251810791475415,-0.22639042952274743,-0.20898372423802178,-0.5024122956229609,-0.13158562140850089,-0.4536882875127205,-0.5338058627932596,-0.4890050889760834,-0.0925906190366065,-0.4574964243612899,-0.5837259729512554,-0.42285218917836775,-0.024603443803172555,-0.34827334521471826,-0.38353914934157163,-0.5204447931056737,-0.5397727658926275,-0.3378846642580164,-0.4117672728471154,-0.5956856943301676,-0.4419420143197298,-0.2569245794515149,-0.30391324611032633,-0.5970499125211395,-0.2184628493840976,-0.0598774892821365,-0.09898523117943021,-0.48218232616738776,-0.09869999196741401,-0.203820081839744,-0.22630974434848536,0
26.95,3.85,3.05,8.35,11.05,21.6,61.375,26.275,1911.0,220.0,174.0,556.0,685.0,1341.0,4210.0,1685.0,19.0,12.0,15.0,18.0,17.0,15.0,21.0,17.0,-0.8060582049638656,-0.8106963867873932,-0.5522923953622517,-0.5563497234538517,-0.27223750065720487,-0.11003700006088565,-0.09456366208114922,-0.30843381881128024,-0.11396536868939548,-0.1808902995174053,-0.03268689170691293,-0.0500095439331231,-0.5431871149521948,-0.7218735401652515,-0.4645788754132686,-0.39664984258868347,-0.5897153960881455,-0.7401474729847926,-0.33476999395691365,-0.36563573825229234,-0.46205238826133294,-0.634690064193346,-0.19033254604572056,-0.34597265037020286,-0.6800955296415795,-0.4119342982346539,-0.2942683044997475,-0.28838406851040715,-0.40139368410250315,-0.5179746045691793,-0.18288807327488815,-0.5333579367298983,0
21.6,4.8,3.975,8.4,11.625,26.15,66.325,37.075,1503.0,302.0,259.0,589.0,665.0,1501.0,3689.0,2498.0,19.0,18.0,22.0,21.0,18.0,13.0,16.0,20.0,-0.5548483286405053,-0.25683768964271864,-0.29091350865098936,-0.19277326564649278,-0.49407140586139936,-0.24814875592597166,-0.3245524999735114,-0.15284091624078927,-0.43347972253442857,-0.19045729162122896,-0.1420164981833014,-0.1995481771064244,-0.6076736907084545,-0.4175722846356389,-0.4477062766932192,-0.4736142036423675,-0.4834721520042819,-0.434494035055735,-0.5024829064473081,-0.33704205256901193,-0.3337190192244798,-0.5166359018874334,-0.3788704986563398,-0.5289254720693721,-0.30673295567063796,-0.2951590133724062,-0.01326806741488737,-0.014572975570923512,-0.7760078438030854,-0.5704749798860705,-0.3266034878218144,-0.1595954870880815,0
21.925,2.975,3.3,8.125,7.5,20.425,63.425,21.725,1499.0,160.0,220.0,547.0,444.0,1141.0,3581.0,1406.0,16.0,13.0,18.0,22.0,17.0,16.0,18.0,19.0,-0.7859997707107195,-0.36971253051722974,-0.5376538603477088,-0.45231629033311,-0.18296487071191456,-0.27780556599261363,-0.18495881964288377,-0.17638019506054275,-0.591133199736304,-0.5901910858468238,-0.2562606360400101,-0.3162656384452767,-0.35609497669704304,-0.066354638046804,-0.04630983567033516,-0.05122377228881472,-0.19450864512804442,-0.18664790665345915,-0.34794609412944266,0.29764441258598123,-0.3216878284249963,-0.3622903332786713,-0.3667098955279747,-0.4488030731631932,-0.30574314339003905,-0.24572307220881434,-0.09079367782548234,-0.08049330138913952,-0.44241229326567033,-0.11202579798202056,-0.2935350554858605,-0.1533468454712893,0
17.85,2.625,2.375,8.875,7.775,19.75,52.025,18.825,1186.0,155.0,161.0,559.0,509.0,1266.0,3191.0,1076.0,21.0,18.0,14.0,20.0,16.0,21.0,15.0,14.0,-0.7587266577168678,-0.2577613142123795,0.02477452056190424,-0.005625939697655863,-0.21919127027750884,-0.15626022218731306,-0.1458990600924518,-0.14796070935765937,-0.2793932042711688,-0.2368667150735014,-0.05181428703742716,-0.1967733279263079,-0.4655786950036979,-0.4171336312487146,-0.33580806777651745,-0.3945425087246903,-0.8271839262061051,-0.692935531553111,-0.47278161081556663,-0.2593863601877784,-0.5232396480887013,-0.4645643892860926,-0.2077903432610319,-0.2515688810538594,-0.5461496639539392,-0.7021920726770962,-0.3316539660297081,-0.37192724224539947,-0.26427381306001496,-0.5525092092955203,-0.19019680384455062,-0.20158788329289004,0
18.3,2.1,3.05,8.6,10.55,16.35,46.875,15.5,1185.0,140.0,184.0,555.0,656.0,1013.0,3202.0,986.0,16.0,17.0,15.0,19.0,18.0,16.0,17.0,17.0,-0.5197975471252343,-0.4135918456377268,-0.40081624138270394,-0.16551377499295025,-0.3639548603407752,-0.3308137563944674,0.02255180465893676,-0.3648228816749267,-0.2687153128937282,-0.429206065211286,-0.05759925411391329,-0.3721058480847894,-0.6224021985932137,-0.5407361682377667,-0.32448429564117587,-0.32325620978130887,-0.6458867957506848,-0.42148941463194706,-0.4666715878392626,-0.45021222385132575,-0.3103990598920928,-0.25967022954241176,-0.26777392860609156,-0.12260337397382756,-0.3970563401384738,-0.16289423574721595,-0.2567099499858251,-0.39144562639330727,-0.5858755582022023,-0.29142688465751915,-0.20510859711645119,-0.34628771395813546,0
22.625,2.9,3.75,7.95,9.3,15.65,43.15,17.95,1524.0,160.0,259.0,510.0,578.0,978.0,2778.0,1123.0,20.0,14.0,20.0,17.0,19.0,17.0,16.0,17.0,-0.5660370134604567,-0.32456491662249587,-0.40144775809359495,-0.4137287861387502,-0.42281808659166703,-0.3448299509705966,-0.5428654557762896,-0.24313252454936182,-0.4108784668418483,-0.22300423331949776,-0.2689927977345237,-0.2573848477031744,-0.790196363638059,-0.6395721988105797,-0.3884713599924305,-0.25358963411477187,-0.36369364044322605,-0.20737188826629524,-0.3508875077189635,-0.16311215467044304,-0.5171204021013645,-0.4580401013507388,-0.5205073954049414,-0.04693360087066118,-0.42728645690592143,-0.08970305569119356,-0.5564215865671558,-0.3815587918367352,-0.6999127105883884,-0.44568878266988843,-0.36886418334079946,-0.23833412859379763,0
23.25,4.075,3.225,7.025,10.675,16.225,45.475,14.75,1532.0,249.0,190.0,417.0,729.0,885.0,2499.0,894.0,16.0,18.0,13.0,16.0,20.0,12.0,13.0,17.0,-0.6910733746546842,-0.6770640841806082,-0.3932101838512174,-0.42147909023597413,-0.409814798559723,-0.17081848363711677,0.05267512918672284,-0.06910792551109358,-0.38055856421727025,-0.6669152598534713,-0.20142810717974452,-0.3311863377811835,-0.31593436037201583,-0.575761281494393,-0.09591259250572717,-0.28687077510448694,-0.7333911194140067,-0.6858122110223602,-0.3307728170841904,-0.2850948318640358,-0.10116072282331225,-0.019892924304946318,-0.0243271469825967,0.1981661024625092,-0.3373424738467201,-0.33774902185672073,-0.3242225782615947,-0.2791464529648476,-0.22088820578479704,-0.09501224452174621,-0.0064214298296810775,-0.020745312132850233,0
21.9,4.2,3.4,8.1,11.7,14.5,49.475,19.625,1613.0,216.0,197.0,453.0,793.0,794.0,2538.0,1276.0,20.0,15.0,15.0,17.0,17.0,15.0,17.0,17.0,-0.6658100708183765,-0.7013827664073657,-0.32613059238753983,-0.385202516849786,-0.27275391807356053,-0.34908545105883765,-0.22649028241604857,-0.2806141602849275,-0.37369651348864386,-0.5871786936448006,-0.38689939121298056,-0.28495993798197355,-0.32709891637821353,-0.44449751803330034,-0.32330451425050816,-0.36076945761422424,-0.6071952270500098,-0.4488696918435035,-0.32116940728511,-0.09725202115586654,-0.10050032599183997,-0.037476105382534194,-0.16427783070132862,-0.1673681951837982,-0.1886136430382345,-0.5162684380209608,-0.18766886830027876,-0.3302848711728385,-0.6662182246664031,-0.5908758490496397,-0.4435977853005237,-0.23888937271568828,0
21.1,3.7,4.025,8.425,8.425,13.875,40.1,16.95,1518.0,205.0,233.0,515.0,524.0,857.0,2108.0,1103.0,19.0,14.0,11.0,15.0,14.0,18.0,16.0,16.0,-0.8946723215317418,-0.8489902173088713,-0.5313350564735828,-0.33862433959525956,-0.39755863457970314,-0.3660196336827762,-0.32621746716113553,-0.15576579239742636,-0.2891690337893492,-0.27745962908948474,-0.2948609992013529,-0.3683609684213319,-0.4221419513253215,-0.21882327218991976,-0.16466883784286057,-0.3781228396310131,-0.25705905802516565,-0.3607741349638717,-0.10903258728126848,0.13961889411152215,-0.3048784724335894,-0.052184757685703305,0.07087139812193706,0.16698711357102197,-0.15701546682413264,-0.31596769770663463,-0.3238680186277842,-0.08492887402122322,-0.45538971349582946,-0.17901827559218647,-0.45645977120334746,-0.21700192087953088,0
22.575,3.025,3.225,8.275,7.95,11.825,33.675,13.825,1526.0,192.0,192.0,519.0,458.0,777.0,2127.0,751.0,18.0,17.0,19.0,17.0,16.0,18.0,20.0,14.0,-1.0201927222895764,-1.0833832775469492,-0.6933097791433124,-0.40410938460635293,-0.40408305056376925,-0.2827141319106743,-0.3248529962961559,-0.29805816736566554,-0.34596800803061367,-0.11415087011599663,-0.12863436179949925,-0.17210428617942364,-0.5853121302142309,-0.4160240034161747,-0.35537655440358773,-0.3047396447994667,-0.3257436897492755,-0.12359449962125688,-0.32067845449101956,-0.4515987478497414,-0.43338604462366886,-0.17595700332367084,-0.29758332621080386,-0.24487556117126671,-0.46329187202646777,-0.1318689186331309,-0.435453792453717,-0.45906485416437504,-0.23536385168349236,-0.21564903359164111,-0.3966792534409475,-0.23528431060104557,0
25.5,3.525,3.275,6.1,11.1,10.825,37.7,18.625,1554.0,194.0,166.0,363.0,766.0,644.0,2205.0,1236.0,18.0,16.0,11.0,13.0,23.0,17.0,15.0,18.0,-0.6220521121899009,-0.5618927079206062,-0.3596283401145024,-0.2743602301870589,-0.3266737599158738,-0.7260691692210388,-0.3486125538282858,-0.4166773965620679,-0.26776160680002287,-0.45139880613074723,-0.42521906536439374,-0.45433174505075735,-0.3306029531721991,-0.47056752943667846,-0.48770081264230564,-0.31719166546633537,-0.8009481815332526,-0.5356297198010347,-0.2988637179740984,-0.16022409735707557,-0.14982606243534569,-0.13476553163343996,-0.4570581724752688,-0.1655848322725082,-0.37504646629833716,-0.2769965926466448,-0.4013345346553918,-0.09470367983105879,-0.5331346551050845,-0.22549928826338306,-0.36348070294999496,-0.30694652036233877,0
26.85,2.95,3.275,7.025,10.875,15.075,42.95,18.525,1866.0,197.0,188.0,453.0,737.0,794.0,2589.0,1097.0,21.0,20.0,15.0,19.0,18.0,18.0,12.0,16.0,-0.7917224613044574,-0.37149572591342,-0.0989199254120559,-0.15310895092274113,-0.3017732797888775,-0.1895352500984189,-0.13432816625234886,-0.1812779451322849,-0.15684400833055906,-0.14777090909986007,-0.3420287895139068,-0.04667327090398065,-0.19038866248053946,-0.0327288825044181,-0.22934267658734914,0.10475900212340804,-0.6613872522612096,-0.6252118355936911,-0.2869759838264488,-0.48465256988524463,-0.1775459362215709,-0.1465633693050986,-0.42704772647781314,-0.1985714573022556,-0.4966342157566656,-0.562763023062935,-0.4659486288750397,-0.5039990982460956,-0.5390223768250919,-0.5053799326603219,-0.4624854688087438,-0.4247708024043117,0
22.15,3.125,3.325,9.3,7.275,12.1,41.6,18.85,1487.0,172.0,196.0,627.0,494.0,761.0,2863.0,1198.0,17.0,12.0,11.0,20.0,21.0,15.0,21.0,18.0,-0.7858160709067217,-0.3473985264046729,-0.2129550867628175,-0.24610708345504848,-0.15525364884193102,-0.21756097587792683,-0.35337765256797327,-0.07198230988041891,-0.47425811467020224,-0.4353532709314276,-0.16284408118047325,-0.12347131006978171,-0.556250369925892,-0.35918653902562486,-0.25975998817378415,-0.21301486831884625,-0.8519701808319005,-0.44196204950536827,-0.24741726543264678,-0.09837335705261557,-0.36761590150434936,-0.26416019463186685,-0.326467611369126,-0.4987776585239572,-0.47643829360433587,-0.1929355294088021,-0.21442406965127833,-0.3025107962803636,-0.5052939060161384,-0.11837521185656345,-0.26700496118950934,-0.3831318622480333,0
18.225,2.575,3.4,8.325,8.25,10.95,33.7,14.175,1218.0,149.0,183.0,464.0,535.0,555.0,1953.0,832.0,17.0,14.0,14.0,15.0,21.0,11.0,17.0,19.0,-0.6606626398957383,-0.4510607493853962,-0.3320024299463493,-0.2914623955337242,-0.15392578592676817,-0.010035708427414844,-0.1389112273781775,-0.11193096031619083,-0.09958640467133763,-0.1927574252949284,-0.14239628229237183,-0.2624472356725458,-0.2527665012228243,-0.42957018989193,-0.222343633043097,-0.4560283842214898,-0.572501942644839,-0.2691117070878071,-0.3223635282064074,-0.037444365117813704,0.08881122774397346,-0.3193754145343031,-0.12228551790803056,-0.2519203915272657,-0.3674790372111725,-0.2699902780776837,-0.3584958567041551,-0.35547192229198527,-0.2632954930774023,-0.13123727612329816,-0.23012922676079658,-0.2598559924258091,0
14.775,3.075,3.975,8.45,10.85,13.75,32.9,12.925,926.0,168.0,219.0,530.0,665.0,655.0,1802.0,740.0,14.0,13.0,15.0,16.0,14.0,14.0,14.0,15.0,-0.7577835129096385,-0.7467124434342853,-0.629272389172301,-0.38834575780607705,-0.012933603497551193,0.03823668035993278,-0.1048851940163182,-0.1504460719727122,-0.05665655684716501,-0.137462738708917,-0.12171953541304666,-0.24515794986734765,-0.4091009283725583,-0.26643923423941085,-0.3304087434736145,-0.24813952673460027,-0.5332729497475066,-0.3764888501503782,-0.5687284756108423,-0.2813711064339577,0.11038109118431905,-0.16275502963039365,-0.21447171918428518,-0.19549194709678017,-0.1744634519073185,-0.4389591012562534,-0.20249075066060013,-0.17982525787839065,-0.2034607128613277,-0.5079978855424371,-0.20145810889750962,-0.2624309791691531,0
20.625,2.95,3.45,6.225,9.725,12.125,32.875,11.275,1448.0,176.0,191.0,355.0,575.0,578.0,1520.0,612.0,18.0,16.0,14.0,16.0,16.0,12.0,14.0,15.0,-0.7573178712670197,-0.44698469930834284,-0.35301862395536665,-0.19131440395095922,-0.25515324530498146,-0.027889748258476517,-0.19287123762721275,-0.19635358338025447,-0.20869527770171328,-0.20274811269429208,-0.3086100980104562,-0.4007238354993134,-0.1802104699728561,-0.1671003457033862,-0.2815477138420258,-0.255860812406493,-0.2506498275677612,-0.19479183800267555,-0.3745672323533171,-0.266121173754435,0.10809399050389072,-0.29398007517010255,-0.21110867707157208,-0.18213851306878684,0.3918715075448155,-0.524789251533159,-0.014681418268147109,-0.2073897316913856,-0.11253896928460311,-0.09326193013208939,-0.32412238249492575,-0.29226687523843337,0
26.775,2.9,2.75,6.95,8.1,10.025,26.725,11.65,1811.0,184.0,135.0,394.0,551.0,614.0,1513.0,728.0,20.0,19.0,10.0,15.0,20.0,20.0,18.0,20.0,-0.7778976052493464,-0.53826651118756,-0.3598025588520544,-0.2510445405640838,-0.24226312405761757,0.08743989022566014,0.24272761074593324,-0.16498723673506865,0.19534387190004257,-0.06575443739790209,-0.26255440392098284,-0.09345783024264843,-0.23869633119993638,-0.2635719266311002,-0.11001245825442404,-0.13440265802529738,-0.5191529796635349,-0.051888618805165085,-0.37483553534664976,-0.3186391440995375,-0.4990002762945067,-0.3618941223754559,-0.03226214167321453,-0.11351696524854588,-0.23908249494524847,-0.19229198597142305,-0.06838230088619827,0.07899125912739689,-0.21034689718088492,-0.19874017980861147,-0.09304584124645099,-0.2932038465060301,0
19.85,3.275,3.025,7.0,9.575,12.55,31.275,12.275,1324.0,205.0,167.0,463.0,678.0,763.0,2108.0,755.0,16.0,12.0,17.0,19.0,18.0,14.0,18.0,14.0,-0.6444960892753255,-0.22563828065678532,-0.37946156064516634,-0.2894375674185366,-0.17593705155868009,-0.027335713531511104,-0.03258815501510413,-0.4576518618285858,-0.09824250383343966,-0.2572071299271116,-0.10238283368644784,-0.360427484852496,-0.48049816292501024,-0.4083122117482093,-0.29376189906753947,-0.3494151216018382,-0.8167343195680705,-0.41351946049739835,-0.2517088991858647,-0.11614006207367625,-0.25409873323325755,-0.2199764655544724,-0.3552644498238471,-0.44837111724433143,-0.5227798021488774,-0.1313655829387094,-0.32746430022023026,-0.39505921162759566,-0.5508889973996123,-0.36627932997593066,-0.43700901488420246,-0.3614794717149103,0
23.6,2.525,2.7,7.4,9.775,12.75,38.7,15.275,1570.0,150.0,149.0,448.0,626.0,762.0,2625.0,933.0,19.0,13.0,15.0,17.0,18.0,16.0,19.0,15.0,-0.6770014516004746,-0.3147413823970669,-0.39742429389445144,-0.33452744400876777,0.009777247759912134,0.023013919617831072,-0.18278319050391864,-0.12479732532521959,-0.019137240345115145,-0.20279756938766555,-0.06497999794913034,-0.2683646413932422,-0.3163578971655464,-0.3478944626477607,-0.21173810916216007,-0.13260859529216398,-0.5907840239038935,-0.3182211797896322,-0.21377451808317216,-0.13362947983684612,-0.11498104858753043,-0.19340456376534385,-0.07229520879038538,-0.37825752941390195,-0.5095015527881034,-0.24454950234734363,-0.523223705687762,-0.17874851994605398,-0.5337214789014672,-0.3826654700853894,-0.533362890338832,-0.29639715061913835,0
24.35,2.325,3.025,6.575,8.7,12.5,25.45,11.475,1556.0,146.0,177.0,433.0,554.0,829.0,1685.0,781.0,18.0,15.0,13.0,19.0,18.0,18.0,17.0,17.0,-0.5495566039989238,-0.46076540201397054,-0.4115602761767788,-0.3411451777230731,-0.6469300582567095,-0.412777611975709,-0.45855813616243274,-0.3156538156862828,-0.2892367298946169,-0.32898088282665183,-0.016071929994290413,-0.4198262775371328,-0.8421246357030635,-0.8127230615560509,-0.458145522242542,-0.3138748326819583,-0.6026748335464583,-0.47641235421302264,-0.37145009413829244,-0.2234107917508328,-0.5527365349359105,-0.1708899411777958,-0.22500494331152435,-0.25381756078668327,-0.6615356751404432,-0.3104215540113789,-0.6285888481804848,-0.5191173019355219,-0.676011136876554,-0.46522665094699217,-0.6416269272694829,-0.5870503788111673,0
23.575,2.3,2.775,7.7,8.05,13.575,27.625,11.375,1594.0,106.0,134.0,523.0,541.0,795.0,1793.0,712.0,18.0,11.0,10.0,22.0,19.0,15.0,19.0,19.0,-0.6205429208571142,-0.5680033754749134,-0.3710474329697598,-0.3666597914367785,0.03872920339121573,-0.08514117806065703,-0.19058555790110385,0.04210221489261176,-0.009045267571880523,-0.25276895556567625,0.06777074811359017,-0.07943270331516099,-0.9004534722213162,-0.8493796730092803,-0.5293408490427199,-0.33157418577768005,-0.9320644083650225,-0.7778121485971153,-0.7197454141910192,-0.26361845921671667,-0.3240464826295878,-0.2101127832227173,-0.37607383352376167,-0.1869486022995541,-0.38094578110813054,-0.46396430528099286,-0.19730900167036952,-0.6095100823722581,-0.29525396949107624,-0.3328091231518444,-0.23643036164274056,-0.35702106668705696,0
22.15,1.95,2.1,5.175,6.275,13.1,27.15,10.475,1446.0,115.0,109.0,295.0,399.0,790.0,1641.0,662.0,17.0,15.0,10.0,17.0,22.0,17.0,17.0,21.0,-0.5760906079556836,-0.44003253780147716,-0.1934480034310962,-0.05422226776466966,-0.47611657387268286,-0.21370187058511889,-0.19745043903111534,-0.2638655561007858,-0.15732068326956228,0.14392594340783904,-0.12472402092328101,-0.30578562584626645,-0.3785342860366762,-0.3422598287110752,-0.14860061339962755,-0.2619471143995758,-0.4826608409857934,-0.42213477025162743,-0.3526218111204769,-0.2554529153073701,-0.47658764844547286,-0.2655034864493656,-0.32846469311045007,-0.24445133600827537,-0.5862327462736827,-0.3861241074562164,-0.5425215042190373,-0.5267530328263389,-0.3145261654539589,-0.3919820526400865,-0.3428722975694945,-0.41334137778639735,0
20.125,1.925,2.35,5.775,7.775,8.35,21.85,8.775,1332.0,106.0,112.0,367.0,528.0,526.0,1259.0,573.0,20.0,14.0,12.0,18.0,19.0,18.0,17.0,18.0,-0.5858590826322694,-0.42708457741161354,-0.012880342120962127,-0.17187326594096816,-0.24730959225133123,-0.23126680719234322,-0.17462709882294722,-0.1181249300186678,-0.07321405617236183,-0.12544404396357706,-0.24175681454447465,-0.4920531789089442,-0.4103520624916332,-0.530544234368946,-0.32752682521847665,-0.6872624007527626,-0.6166757938920594,-0.38686566945259554,-0.3270762414738612,-0.15543609639770867,-0.3142549300539593,0.024465060459890733,-0.28404088628454827,-0.2732561553392295,-0.5306943850606993,-0.49904372589234286,-0.530322639736625,-0.39491384870000207,-0.5058569944895229,-0.33276568911841004,-0.41788320020483605,-0.23883602790883277,0
18.8,2.225,2.275,6.275,5.85,8.975,23.8,11.75,1165.0,120.0,136.0,400.0,404.0,543.0,1565.0,781.0,16.0,12.0,10.0,12.0,23.0,18.0,20.0,21.0,-0.4732700620768163,-0.33255267249600173,-0.36584444839638,-0.39029311433925645,-0.1477639360942779,-0.06476631527797373,-0.16462308005829904,-0.1269526518444154,-0.18890661390780564,-0.15091175758665623,-0.4688988053892694,-0.0005131038596880112,-0.42993432059223613,-0.3558216971211664,-0.40661732544825907,-0.11002537013836884,-0.5997628676875242,-0.22660669568441638,-0.14567594178098267,-0.26992191265825505,-0.29867935414325214,-0.23022227307555407,-0.2188742113187679,-0.18964078704912082,-0.4221645760887312,0.03290093021930638,-0.3444365022765906,-0.45143576664152285,-0.6371474843318006,-0.3553162741340757,-0.191629886919397,-0.3015534991756903,0
16.875,2.325,3.025,6.175,9.575,10.025,20.775,11.375,1002.0,146.0,170.0,395.0,656.0,570.0,1380.0,776.0,17.0,16.0,14.0,15.0,19.0,15.0,18.0,22.0,-0.2624699206731302,-0.16644115818314503,-0.31442639763263314,-0.166552728274492,-0.24861144709288868,0.3424310584243628,0.0052435312605772656,-0.283824134096644,-0.20512520391750622,-0.11669423197399548,-0.44449327124134125,-0.251694455349072,-0.5183752393345843,-0.4095639027449835,-0.38996335870173937,-0.39753742228507344,-0.7671616069280488,-0.4765674716553158,-0.4156327925152074,-0.4389847065157266,-0.11812322033427577,-0.15617570204727435,-0.5237390697273109,-0.20282374941475403,-0.7278333676417432,-0.43425574849264836,-0.4965721090712373,-0.45803687564216006,-0.6432983018943085,-0.28528696043132473,-0.12314887074109221,-0.3163406284294086,0
20.6,1.625,2.9,6.8,6.15,9.6,16.0,10.775,1397.0,100.0,201.0,461.0,407.0,542.0,975.0,702.0,22.0,11.0,18.0,19.0,18.0,15.0,16.0,17.0,-0.9147048518685648,-0.7696293750247157,-0.6832606959821362,-0.1855641428832773,-0.4811178065869047,-0.11914736285261024,-0.27664560147710976,-0.2049056453269489,-0.22704349161590617,0.19107304670783462,0.02864399948865897,-0.20718825769481838,-0.6169259795969371,-0.3577737788661623,-0.26052011424077093,-0.08005782783580302,-0.6051622669655031,-0.2745405117671276,-0.36999841073060774,-0.2762259862887754,0.03289098810655729,-0.30707436046873793,-0.3937990799446732,-0.010692264862145005,-0.14107210991662422,-0.549483227150727,-0.1970172410238311,-0.33886743270555764,-0.5405804692035081,-0.5343898691189252,-0.3086066229816971,-0.1501514951844772,0
28.4,2.2,2.3,6.275,5.65,9.375,20.8,10.025,2069.0,131.0,144.0,393.0,368.0,524.0,1306.0,681.0,22.0,15.0,15.0,18.0,19.0,15.0,18.0,21.0,-0.975691347067665,-0.648365305425694,-0.7965225818098641,-0.4195163780638212,-0.21113756155402852,0.15398803240132727,-0.19963167863211542,-0.10768702375958247,-0.2535993943823614,-0.2522287028914796,0.07446278536153413,-0.19174232800835508,-0.5067835791417473,-0.4448710454029054,-0.34550318985350553,-0.21824172322557853,-0.4493053659308443,-0.3106248719276051,0.07056846040106338,-0.14550667822370478,-0.24774291864833362,-0.3318618794405832,-0.29043740057924816,-0.37448995524974266,-0.5481313048690225,-0.19026453975628244,-0.30918754918604724,-0.33790422703139844,-0.6779096958708896,-0.2575472555423749,-0.07631639181202102,-0.03452528516472528,0
23.05,2.75,2.175,5.725,5.9,9.55,25.2,11.275,1639.0,171.0,138.0,360.0,374.0,560.0,1553.0,803.0,20.0,18.0,18.0,14.0,16.0,15.0,17.0,20.0,-0.9432499361972368,-0.6776027594296316,-0.6159806790032726,-0.35068947806689665,-0.17579124614975436,0.07086288621580492,0.2516200592084855,-0.3138320835335013,-0.3533627440100353,-0.2228049438572356,0.16924255798210588,-0.3102417075558551,-0.3626860118924728,-0.25916775253110563,-0.3018266246076167,-0.1528676757936238,-0.47322527160828537,-0.40697782649745257,-0.3144169529792303,-0.32972725283279186,-0.3313151212258909,-0.49555007054732986,-0.0937870196081918,-0.24210910964956234,-0.6711234639516355,-0.6071549479103149,-0.4723220563692815,-0.4428279134030197,-0.7275038012574437,-0.5103029281745715,-0.37933550100422475,-0.48246364833794614,0
19.45,2.375,2.125,6.0,8.95,8.775,23.975,10.0,1343.0,150.0,115.0,357.0,555.0,547.0,1606.0,609.0,21.0,15.0,13.0,17.0,17.0,19.0,16.0,15.0,-0.7202074164373923,-0.5394156394975689,-0.4548909618622112,-0.23946097933735855,-0.36652555391090563,-0.06707816186183224,-0.13058510029544768,-0.1278456808140087,-0.11401666018314673,-0.2445933480125947,-0.04333614499488986,-0.0775095968451933,-0.38995980721007656,-0.38523809948516363,-0.2361353335758237,-0.09960948312588673,-0.5179811368781683,-0.5799603364095979,-0.3056993276934512,-0.09137982504561197,-0.16140263798886156,-0.16602593220804435,-0.15579208276106282,-0.03906508813503109,-0.5177682638767268,-0.22970127140101007,-0.24252022549492316,-0.35294747670666893,-0.3523051513565366,-0.3065344731704903,-0.25976213456662356,-0.6005060772607467,0
19.75,2.675,2.475,6.1,9.425,11.375,28.425,12.975,1308.0,158.0,111.0,347.0,633.0,662.0,1602.0,771.0,16.0,18.0,9.0,15.0,21.0,13.0,12.0,12.0,-0.6907188760061138,-0.46105708127889217,-0.5426544109240332,-0.4459753692102017,-0.08602382942438128,-0.20391422988920246,-0.17519154505372114,-0.21832631526751534,0.36549266127107505,-0.3914256359937923,0.01655181848340171,-0.14139481112918992,-0.1148537519274422,-0.17246165368261768,-0.25047321062026423,-0.2902640690619261,-0.5418486387677748,-0.3247940189835041,-0.19681710622666604,-0.10944421857566512,-0.05557260270739946,-0.46794008404628296,-0.08434831161571656,-0.3320925306391702,-0.28097671942513763,-0.45294534163377703,-0.2938429906077461,-0.44585863728846825,-0.4582001190161271,-0.38995724337249,-0.3627248204225655,-0.514852400968284,0
22.775,3.075,2.95,7.8,7.775,12.725,39.7,17.225,1457.0,183.0,136.0,457.0,473.0,826.0,2539.0,1081.0,17.0,18.0,12.0,18.0,16.0,21.0,17.0,14.0,-0.5667021048651377,-0.3337899270072496,-0.399702143620309,-0.420341504900047,-0.4630255369543474,-0.5290403880190587,-0.3874416303444153,-0.3803498464667539,-0.009595836664477457,-0.30143804522162676,-0.3013744012904424,-0.292847106928973,-0.16586738289720365,-0.2546686435339408,-0.21823916832149975,-0.3441768408937434,-0.2507954749193054,-0.11390468409907477,-0.01868019190322572,-0.3624776959324357,-0.292437335932764,-0.4770604267158714,-0.1459153097829536,-0.28077767497281453,-0.520956436834423,-0.42098997393655746,-0.5431003826509465,-0.30592013521233197,-0.49338218570838266,-0.5777335395134968,-0.3899566149883659,-0.343977165744852,0
17.25,3.525,2.95,8.375,8.225,13.625,36.725,17.95,1130.0,240.0,190.0,575.0,479.0,900.0,2555.0,1075.0,18.0,16.0,19.0,18.0,16.0,18.0,20.0,19.0,-0.7948607294631139,-0.8426465060874304,-0.3773561550211677,-0.29213329081136036,-0.7051713813060128,-0.4589567747574554,-0.5526043257610914,-0.4252034000544545,-0.21256351185913927,-0.08209789413570433,-0.1805798902169221,-0.2720616417625789,-0.36674009600558627,-0.2024517012098568,-0.17192294787066983,-0.18836004525363254,-0.48237726375312295,-0.6183908699710473,-0.44633390597109696,-0.2629617614575715,-0.38425050470469885,-0.16748220598734068,-0.2258312550774529,-0.24273803354641818,-0.5454430306073511,-0.35117063798556053,-0.3158746245210667,-0.1976120422416338,-0.4004031146080931,-0.32385710070928714,-0.37322606025973787,0.04797932052085244,0
22.0,3.3,3.35,5.925,11.125,15.9,44.875,15.825,1456.0,192.0,200.0,345.0,699.0,1015.0,2698.0,1076.0,21.0,15.0,16.0,14.0,21.0,19.0,18.0,19.0,-0.6197345704599966,-0.4394186183827904,-0.3982473001628194,-0.4739512612185207,-0.41286575250263635,-0.3603220043245976,-0.3807211780716687,-0.16860093640464613,-0.3369171187742918,-0.2165416747435497,-0.34993352292151997,-0.269219958488874,-0.2792453307577219,-0.17295783925549796,-0.2849527003177206,-0.43353762275908087,-0.5341055214890643,-0.33918813853267304,-0.15927797855853493,-0.11804397653718252,-0.4997802046311591,-0.2367383319483754,-0.4040524168435231,-0.358941406549838,-0.6883891642777158,-0.7002831359850109,-0.5192778994593218,-0.2807677681813495,-0.7934651820755347,-0.4977737976688995,-0.38318549156162346,-0.24844405538538186,0
20.525,3.25,3.35,6.7,6.75,14.975,46.125,17.0,1181.0,197.0,192.0,420.0,355.0,848.0,2581.0,1008.0,18.0,14.0,17.0,14.0,17.0,15.0,14.0,17.0,-0.41266053864096414,-0.3092309499572949,-0.3348371224475333,-0.5070770868888899,-0.22130254800616686,-0.19740339829932776,-0.16224822478494574,-0.32406035862834026,-0.2895574780748567,-0.6452393153027826,-0.30866184580572315,-0.4991908334501062,-0.522109004150624,-0.7012157210563861,-0.42004684551089866,-0.529183276851879,-0.25601396559080525,-0.2830957564746383,-0.07854426968366786,-0.2916815859475324,-0.41131611075049157,-0.16321868969074405,-0.3822991598258267,-0.28945817615878444,-0.42956433036226416,-0.5530151967822482,-0.3038994052501563,-0.07166443664427445,-0.46134055463066526,-0.4618705129234667,-0.2865000014905698,-0.4292945858139883,0
14.475,2.825,2.975,5.975,7.025,13.45,37.3,15.175,974.0,150.0,183.0,383.0,443.0,787.0,2211.0,926.0,17.0,12.0,13.0,18.0,18.0,16.0,17.0,16.0,-0.5358379029033944,-0.3197501991802599,-0.4572328302211384,-0.07928015914602829,-0.013953519815194054,-0.15286599847713506,-0.03144940426463252,-0.09224586400992818,-0.23937104464912737,-0.2933009398270444,0.007406273135321226,-0.05559921713925465,-0.34268376460485633,-0.4539795204505507,0.09089840968025364,-0.14206277630697084,-0.597659034789232,-0.5040272719481015,-0.5059589371393748,-0.5037275117039358,-0.3726024015242284,-0.2340471494825587,-0.40538410491218907,-0.5219425516392695,-0.4647721944380524,-0.3839251801386881,-0.4649310558755457,-0.2539581189181503,-0.7217006157742881,-0.6054135036635923,-0.5172386765923314,-0.2041002393951068,0
16.9,2.175,2.025,5.025,9.125,11.65,31.525,11.175,1002.0,119.0,126.0,306.0,630.0,735.0,1844.0,753.0,19.0,10.0,10.0,16.0,21.0,13.0,18.0,19.0,-0.2607582105592277,-0.29981993041667326,-0.08445835649546925,-0.2741060494028479,0.08081282878815911,0.014943619354660922,0.02209852129511672,-0.01864518081695271,-0.09304068114760468,-0.07203690159925943,0.09480792194495559,0.014529923187757894,-0.30288896961698153,-0.23186681438964626,-0.2992668222898698,-0.20052011148003934,-0.6318042307079156,-0.46196058365669557,-0.29631450210355964,-0.397096756707501,-0.38576664183886755,-0.19329500478127692,-0.24490348439962276,-0.22196353949989606,-0.37532343212295677,-0.025023699166650006,-0.3755689168970476,-0.25716775589049257,-0.5978055716589278,-0.4118536377232024,-0.38507448333621797,-0.10477484901121549,0
16.0,2.65,2.2,6.75,7.25,13.025,25.025,9.65,1052.0,168.0,126.0,458.0,463.0,822.0,1530.0,658.0,17.0,17.0,17.0,19.0,21.0,15.0,18.0,18.0,-0.744907585171414,-0.6340364161836579,-0.41612986314972045,-0.35116064643068867,-0.39728368695069516,-0.13938993306299863,-0.42667431927898747,-0.3793310982227354,-0.1760976762685266,-0.3742649922664611,-0.21974466590542244,-0.4009022198266437,-0.4561282362986296,-0.3344318971873709,-0.08218638962262555,-0.3828402972981111,-0.5597058234765383,-0.522050139762866,-0.22843283607525705,-0.2607111153291746,-0.6200264653152422,-0.3520723330651023,-0.244453249490779,-0.1557472043639313,-0.4679855521933842,-0.5396190554223126,-0.4795039901759443,-0.4883001084081015,-0.6459799901477228,-0.526648692690388,-0.2305811023533997,-0.02906499441883317,0
16.475,2.35,2.3,5.775,6.225,9.55,23.2,11.3,1121.0,137.0,132.0,379.0,385.0,638.0,1626.0,701.0,20.0,14.0,14.0,19.0,14.0,20.0,20.0,15.0,-0.5765461214604423,-0.3063013089408691,-0.1432447906967299,-0.32183172289990436,-0.09580949732772849,-0.19147605520779087,0.12028693706912055,-0.20384117799822887,-0.16935211258146918,-0.06096739684028556,-0.29755673682091255,-0.2826532456518876,-0.41405359048399903,-0.030062207222723226,-0.4872362334890391,-0.43205758762295077,-0.6765620644647339,-0.5374549982634538,-0.4590189351750836,-0.26556161815573603,-0.3441480887134345,-0.13510566227518025,-0.31880329834668425,0.00927993631925545,-0.5536444990710111,-0.10025600417256582,-0.09805579750189541,-0.15454303889862153,-0.3427228424208434,-0.17889192534992354,0.04802474456008379,0.0726723862330495,0
17.925,2.85,2.5,5.95,6.425,8.3,20.475,12.125,1229.0,167.0,141.0,326.0,407.0,531.0,1321.0,852.0,22.0,15.0,17.0,13.0,19.0,17.0,20.0,17.0,-0.5543157912295545,-0.17413247682970448,-0.24664575392327354,-0.22858365567594988,-0.4178962762727563,-0.4095200098298981,-0.2640378648555442,-0.18423155582742526,-0.3416874592965117,-0.31014759164242234,-0.3944579359107152,-0.43215420053165965,-0.34673461326320876,-0.307145067704686,-0.5088497974863812,-0.48041475432660696,-0.47211811647964036,-0.43251127092998193,-0.22223534733096267,-0.4108000096237264,-0.2701756691824344,-0.08711182463000984,-0.30575107144283276,-0.032586742353114484,-0.438223819075704,-0.17074954456135907,-0.0561917661969485,-0.37909330125609114,-0.664540652543613,-0.367509767492605,-0.1491147355831076,-0.1697064336803607,0
15.65,1.95,2.125,4.925,6.85,10.4,24.925,8.95,1080.0,119.0,138.0,329.0,443.0,690.0,1562.0,562.0,19.0,10.0,16.0,21.0,19.0,21.0,16.0,19.0,-0.6226594631233645,-0.08249747254802574,-0.23137061428602082,-0.4102195469375454,-0.2543784439214386,-0.18804127563433953,-0.27269311960832915,0.03548605852881221,-0.5296877968700181,-0.20381084800155738,0.1432762260039735,-0.07107760064738923,-0.40376337947778745,-0.22354193853024987,-0.03150298525936659,-0.030735204870137367,-0.6555034667543225,-0.468749827028929,-0.3211286480952981,0.03363606471742989,-0.6809240641630813,-0.5571068393907379,-0.3227011251017341,-0.378533159047404,-0.4112436078158182,-0.3989055083225462,-0.19665394673782147,-0.3447318884775419,-0.39263852800311017,-0.2185947643426084,0.0003244764767159867,-0.05350468210151992,0
19.6,2.525,2.875,4.925,7.975,11.475,26.3,11.2,1348.0,156.0,168.0,284.0,533.0,750.0,1702.0,693.0,17.0,14.0,12.0,13.0,21.0,21.0,18.0,14.0,-0.603741002195269,-0.6887558430961627,-0.4214389008533377,-0.5414845424275989,-0.4197143315259595,-0.29587104965191435,-0.2117126658395901,-0.0035905826438867973,-0.31697189722006297,-0.45252665696590383,-0.3954796394248709,-0.2588306156730256,-0.20738386328484212,-0.3038100333378907,-0.4467335879830437,-0.21104500268774973,-0.7775992775395899,-0.5745888489702609,-0.02388005356031242,-0.16472471479453543,-0.535899497336911,-0.33756387043834385,-0.24046145058879814,-0.5612723099011062,-0.5097760334835283,-0.49890399095169397,-0.40179744687685714,-0.49686378162551686,-0.4509649321815201,-0.4691810878232977,-0.20199231490754307,-0.2764867371570617,0
19.2,2.85,2.625,7.8,9.3,13.225,30.25,13.65,1317.0,191.0,164.0,512.0,612.0,716.0,1902.0,740.0,20.0,19.0,16.0,17.0,18.0,13.0,19.0,15.0,-0.6552426898220145,-0.624722329949575,-0.48090351073131044,-0.39472332623847917,-0.4261602955446436,-0.21333770635500252,-0.31658692977901215,-0.3599192588424642,-0.4649661406314945,-0.46698929169540054,-0.21830362244113827,-0.44867965445359126,-0.5234302385085218,-0.60095347267697,-0.3988552871902428,-0.5924551588575471,-0.64458815777989,-0.7234108829963739,-0.5743686853334994,-0.47350652774600555,-0.2545018507317621,-0.1964162040273574,-0.38647447604725205,-0.07296190576507347,-0.3128840421635827,-0.12800519009352293,-0.3996108191944748,-0.12822636696717424,-0.23507427632774794,-0.4552202663389286,-0.38210071210604146,-0.5065624741527116,0
22.45,3.125,2.925,6.1,8.7,9.675,37.6,15.225,1576.0,175.0,181.0,369.0,575.0,574.0,2283.0,926.0,23.0,14.0,15.0,15.0,19.0,18.0,19.0,20.0,-0.7740433077653459,-0.509024407884589,-0.29107780805487526,-0.12732443122623904,-0.06399308830152069,0.0668509859162983,-0.35183110937506956,-0.2348293356030172,-0.24480557941877498,0.003808606292711807,-0.3268832130780628,-0.008287289890981627,-0.2763949452619709,-0.16357063005523434,-0.34276396021678246,-0.19120444806289158,-0.5081941746216223,-0.35214050054566814,-0.37336519396040463,-0.44693552256118946,-0.10209603660793559,-0.14458068190276563,0.05834856936360991,-0.25949238524512686,-0.41432662086690725,-0.1550973983758886,-0.28720153450122177,-0.31815215890715837,-0.3707426355993978,-0.14397705205744799,-0.3232508548348772,-0.44879814747466046,0
27.15,2.85,3.7,8.8,9.675,12.025,45.85,19.35,1958.0,199.0,214.0,518.0,585.0,742.0,3060.0,1133.0,22.0,17.0,17.0,16.0,15.0,18.0,23.0,17.0,-0.9042597799161276,-0.6751049419739229,-0.3059274548010621,-0.1576631601073786,-0.27614171896418166,0.1837268320198143,0.16615616317527088,-0.17358940507750673,-0.25739860177951607,-0.1273515388958401,-0.026840300016845103,-0.16853527742508623,-0.2667891617338996,-0.30043303011701766,-0.17792123396302276,-0.18491664104849806,-0.48052395010104554,-0.28808966275906156,-0.21773823122277458,-0.25660061978794274,-0.21723781731321823,-0.15396044635840403,-0.310031789851389,-0.24145768391395692,-0.3596677514901239,-0.15705032983208017,-0.03136159812326224,-0.38661657726042326,-0.22304271115348595,-0.048119405870412,-0.09838134061242981,-0.198911915590876,0
22.225,3.525,3.925,7.1,8.9,13.75,45.9,19.625,1466.0,225.0,210.0,395.0,519.0,786.0,2755.0,1210.0,19.0,16.0,12.0,16.0,18.0,14.0,18.0,18.0,-0.7586522271704452,-0.7258511226158549,-0.39714787352134906,-0.24649454990535075,-0.20606153737569863,-0.16152489119766583,-0.041671279693980656,-0.41622174963650105,-0.07326346647533592,-0.3154237142791604,-0.16418990344659976,-0.3978315193152092,-0.30381488069345874,-0.41186074171152176,-0.5164575956209659,-0.2775744254304433,-0.4705906734267425,-0.3803171883610277,-0.485504060964142,-0.26272939519807326,-0.30502776648678614,-0.03125464863406202,-0.4024650554156571,-0.4086694124954562,-0.39832550534640204,-0.3051816641514197,-0.15756046617730055,-0.1702459697695435,-0.3683659818571824,-0.21852952862808253,-0.25960777017242553,-0.2267263125141375,0
15.075,2.525,3.225,6.275,7.675,15.875,45.375,14.1,1049.0,157.0,197.0,396.0,442.0,999.0,2787.0,902.0,22.0,9.0,18.0,17.0,18.0,18.0,18.0,17.0,-0.46861885773720824,-0.2447047832531083,-0.045624611140579176,-0.017683921342057554,-0.46328355698701235,-0.35638996120815186,-0.28370556549913184,-0.2590092889461238,-0.2867575204158592,-0.31024719379552257,-0.2481681088449363,-0.3072425959511898,-0.3203228221768114,-0.48870841739640664,-0.2087435042884053,-0.43564754401001404,-0.3439724816281581,-0.4133323465199363,-0.28145787682949097,-0.1896626548771432,-0.5863928234908915,-0.3445960831844965,-0.3859318469395212,-0.2636831673861948,-0.5218823429412645,-0.3215270218553044,-0.3309228594421716,-0.4153784487916416,-0.43641887002967855,-0.6222507212904469,-0.2088348420088369,-0.537759460949122,0
25.2,3.775,3.45,6.925,7.7,18.175,36.975,15.675,1840.0,247.0,213.0,473.0,507.0,1224.0,2335.0,985.0,23.0,23.0,14.0,19.0,18.0,15.0,18.0,19.0,-0.8308730054457895,-0.5465648240357033,-0.4109648537475412,-0.17425285543327046,-0.3455944463687105,-0.05543567813630957,-0.060083620013415134,-0.4817046109801519,-0.33462744317304455,-0.21179830232212332,-0.015104760921614972,-0.2981201810977861,-0.63357662547014,-0.4992986815396487,-0.2937985748341467,-0.3104615120073785,-0.5268058021871355,-0.28310206245177555,-0.1973529331907095,-0.4073125155149506,-0.5670579632420785,-0.24309114849563293,-0.12487259258507734,-0.22815991847683725,-0.5015445051865373,-0.40164865737358263,-0.3716906075541589,-0.21633810702566286,-0.5174484251139052,-0.6050999646575048,-0.24386406668142382,-0.3001580787247649,0
22.2,3.35,2.9,6.525,11.175,16.85,45.725,18.3,1611.0,217.0,178.0,420.0,810.0,1007.0,2657.0,1191.0,19.0,16.0,13.0,17.0,23.0,12.0,18.0,20.0,-0.8894161521618984,-0.2595731004481183,-0.11205711276276004,-0.019845604996335486,-0.3724449972095518,-0.1834237020133837,-0.21984166805821712,-0.3657937642064314,-0.5208027588198888,-0.4224013722853554,-0.1568037590700561,-0.1832346238335276,-0.39826316944853685,-0.4429180696570579,-0.26513639762066954,-0.372713051400962,-0.5917522812881677,-0.2046026216334811,-0.16983111666521855,-0.3426281841128605,-0.39715488439765206,-0.22726079123439946,-0.3557386711769076,-0.3970014273207849,-0.3578192124972591,-0.2326500136761845,-0.34945099936072826,-0.3373906779191671,-0.3619513429850369,-0.200095811475127,-0.2013639230754876,-0.3151169230422997,0
15.5,4.15,2.65,6.975,11.5,14.025,45.25,14.725,1058.0,248.0,145.0,493.0,718.0,869.0,2918.0,977.0,19.0,12.0,14.0,22.0,18.0,18.0,20.0,17.0,-0.7722773975808649,-0.3099192237571565,-0.2280102821551226,-0.2259553468825325,-0.10725813329022016,-0.2644429931626372,-0.11775638526681469,-0.14795743472245274,-0.36440740264631005,-0.372178041074146,0.055533460575779736,-0.13690202802669185,-0.6253594647226441,-0.39680333440094856,-0.22688395653327248,-0.2572519294760349,-0.7473570891272049,-0.6483594650736079,-0.5530804577250471,-0.37199100376511485,-0.5663419504094961,-0.3555070656805691,-0.3101656329553952,-0.238477860719641,-0.5860135526748103,-0.5414387310789542,-0.31350976743441944,-0.425789047445695,-0.6377253858373689,-0.3126657704277311,-0.10482264573147372,-0.1764535209742646,0
22.6,4.1,2.475,7.525,9.8,12.975,37.075,14.625,1587.0,212.0,169.0,510.0,624.0,824.0,2373.0,972.0,22.0,15.0,15.0,20.0,16.0,18.0,17.0,20.0,-0.6259416175990645,-0.41095465248000757,-0.24256954715694393,-0.14184337085384394,-0.004448967765715834,-0.10928898613677976,-0.14459221425131707,-0.26428457375018977,-0.7475371000900942,-0.5476852641637312,-0.2691697695481378,-0.3024225901410772,-0.6726448820328355,-0.4530968091432591,-0.262828150654911,-0.30885823909637555,-0.6383188590266841,-0.7249789351109286,-0.3385529350949761,-0.2023249757169741,-0.4128960298808745,-0.22447289044679994,-0.2336868633820964,-0.2537178985433282,-0.5980781947139756,-0.7526456409800653,-0.4970278293778275,-0.4815817137016485,-0.47328469431974113,-0.44965993342548544,-0.2226975301140137,-0.37909399753484546,0
25.25,4.875,3.05,8.0,6.8,17.1,38.875,15.675,1706.0,308.0,188.0,526.0,452.0,1055.0,2509.0,837.0,20.0,22.0,13.0,15.0,19.0,20.0,18.0,17.0,-0.69782858961389,-0.5557817517470884,-0.4537796412762745,-0.3728458761576968,-0.536879486395816,-0.3745744414921579,-0.16597075020924673,-0.29564807891191053,-0.32820879622339294,-0.319330663718886,-0.13884040731992747,-0.3724693894307653,-0.461474181869097,-0.524111975996696,-0.3171392227173768,-0.4002264599893104,-0.46390379990874914,-0.3275026848024492,-0.34733821012897764,-0.377853861314305,-0.454534356868919,-0.4710928083505159,0.03920723869255856,-0.21819147441088213,-0.5153633153077574,-0.31584863708038396,-0.4282252093703563,-0.4340361492414458,-0.15026559357101596,-0.25762997140113814,-0.24209429847308153,-0.28750635025792665,0
21.45,6.85,4.15,8.35,14.125,22.325,57.925,31.025,1453.0,483.0,252.0,555.0,878.0,1338.0,3508.0,1742.0,19.0,19.0,17.0,22.0,17.0,17.0,20.0,16.0,-0.664541827270486,-0.5036828337006571,-0.47575634495018204,-0.30760645643643925,-0.9240663801195066,-0.6370555879616062,-0.35106643107585583,-0.2642484027247366,-0.6263995489321423,-0.31124954018745926,-0.2277840895608546,-0.1157011678199378,-0.5972730217595966,-0.5057184557285216,-0.10822748794512556,-0.08422092329241479,-0.7366885410111703,-0.8561122163174175,-0.6078343905543129,-0.5685904091700161,-0.6619049157940978,-0.5200638646427462,-0.4741732099049573,-0.3540189533312765,-0.5961364016519574,-0.3490705014609311,-0.5974607644981317,-0.3426975950951744,-0.5874139432220096,-0.4524806363864799,-0.6107894013682147,-0.3213361924493684,0
26.875,6.225,4.6,8.0,12.925,31.65,74.35,45.675,1927.0,362.0,292.0,490.0,728.0,1789.0,4393.0,2720.0,19.0,12.0,16.0,18.0,14.0,17.0,17.0,17.0,-0.8486174937844413,-0.8106902148011162,-0.6147703670463872,-0.4612420912578793,-0.4047350473582596,-0.24370234361085524,-0.08877546244509048,-0.3048253000960455,-0.6361762854120688,-0.3335544771221498,-0.102125322431721,-0.19515930222122835,-0.46710725895007044,-0.5498240407769724,-0.30464077157281905,-0.1688368190082173,-0.2973899273345286,-0.6096848158409596,-0.26902052649382197,-0.3719610104961343,-0.2947392875391107,-0.14972585729719384,-0.20523063269507996,-0.45359113061164696,-0.428541506633945,-0.31836432123174874,-0.15054100278818033,-0.15964981040396445,-0.3464915230931694,-0.4793533493553891,-0.24452085665238407,-0.36731213764194165,0
25.0,7.075,4.65,9.1,17.85,34.6,64.2,38.275,1461.0,476.0,311.0,605.0,1146.0,2079.0,3804.0,2462.0,14.0,21.0,15.0,18.0,20.0,17.0,18.0,16.0,-0.3955444399766819,-0.3736164645221111,-0.20118979645106058,-0.1562875459075463,-0.7231161913648777,-0.5872973014586764,-0.3879582943020241,-0.38293627528586566,-0.4939484772199636,-0.5110699777328798,-0.22990372765304062,-0.2944595784515785,-0.5201482014356661,-0.4333175561943133,-0.41074555492397846,-0.17076179714786338,-0.6752177517845275,-0.6634115615025183,-0.2757299092494697,-0.2304092276996385,-0.698170210676098,-0.6475718840314837,-0.5880907598480447,-0.536085550549947,-0.2841657162560154,-0.48020742004997913,-0.10673048381671049,-0.35879390432458014,-0.4447830553470885,-0.4971193451991961,-0.24842312581501796,-0.3365343288379117,0
35.125,8.2,5.325,8.375,16.55,25.475,60.225,37.725,2241.0,501.0,329.0,533.0,985.0,1391.0,3413.0,2221.0,18.0,14.0,18.0,19.0,17.0,15.0,15.0,16.0,-0.4378531769383527,-0.288316791669458,-0.2155670273220231,-0.12145337562912693,-0.4300418575796258,-0.2161549077382389,-0.12992675526652955,-0.02904934036387874,-0.3002826081050486,-0.18357928286171218,-0.32617918581902794,-0.14429840925120688,-0.4207225730568097,-0.3281070477426028,-0.4980664907827447,-0.07508382078339654,-0.3321918057973313,-0.32255483807511165,-0.1634494797346258,0.10476077539371016,-0.005009296857956117,-0.35448333827729595,-0.26017322826654543,0.05393231163941291,-0.13719252784598096,-0.24885634133143372,0.060885893380584984,0.09932797788734093,-0.20486303329465552,-0.23803922698001334,-0.07816209292624557,-0.2433871990822517,0
39.15,18.075,9.775,13.475,16.1,30.325,73.575,43.225,2262.0,1131.0,624.0,845.0,1013.0,1853.0,4842.0,2604.0,16.0,17.0,17.0,18.0,19.0,19.0,21.0,17.0,-0.5659926733166191,-0.6018968097600096,-0.4029051282586846,-0.24294155062023662,-0.6805160969437347,-0.6143687389581014,-0.371975491411636,-0.328393598665247,-0.6004676154673403,-0.6666627615648139,-0.23552255430725916,-0.10742106715232963,-0.39186966838905646,-0.5977933453593808,-0.30041216099475077,-0.4386721684431359,-0.5422888863525891,-0.5303991461989233,-0.37448299358962994,0.015878477675018012,-0.5120278137589441,-0.5388268340212355,-0.3830897764149365,-0.13385187259588574,-0.37148458084400443,0.11031639291189911,-0.05146965992936105,-0.06397443643131978,-0.41033230353732697,-0.13747611612180013,-0.16758872184674833,-0.16993710770061807,0
42.675,31.8,11.85,13.55,15.75,27.0,75.075,40.9,2809.0,2192.0,839.0,832.0,1106.0,1799.0,5204.0,2826.0,21.0,21.0,19.0,17.0,20.0,23.0,19.0,21.0,-0.7690454322437542,-0.5798433486169847,-0.42840275258312593,-0.18570467068322657,-0.8681625128619945,-0.6490162719901408,-0.49618112814736787,-0.3238872327763268,-0.8243350693930882,-0.6433893232594582,-0.294591630655067,0.06217394916172255,-0.4809579442976987,-0.3225860050793201,-0.33844430234929535,-0.036732425914047837,-0.5457153366703614,-0.1930064218030455,-0.49670077387241396,-0.2805760942042239,-0.4984210869654057,-0.380348554508781,-0.2463445203434163,-0.45914701596019886,-0.3845838095065711,0.08899208675294085,-0.1006724140042029,0.01971938337025989,-0.6912385914200233,-0.3883524926420022,-0.18495995799703902,-0.2726775278360982,0
38.875,23.0,9.225,14.375,21.175,27.35,68.9,42.75,2512.0,1549.0,595.0,999.0,1334.0,1661.0,4156.0,3048.0,18.0,22.0,16.0,17.0,17.0,16.0,16.0,18.0,-0.5753651861733691,-0.4044590804288492,-0.2857053373288111,-0.26397121377720595,-0.6024619015780156,-0.3548514165200226,-0.3028675437485127,-0.20853884658333646,-0.5196043577496539,0.08718551272227233,0.1532785186168402,0.054726481120397776,-0.5276141956588934,-0.3376327343349462,-0.3664700003728917,-0.15372119343860396,-0.44401511156828294,-0.17673935310801253,-0.5583592733142569,-0.3611666447762259,-0.24594594690109634,-0.30244749763172857,-0.26313170181409756,-0.4278571229298134,-0.3486984126477811,-0.1506855249484708,0.04080506470589424,-0.15387350737033373,-0.601158970002154,-0.17016269780880922,-0.005787768825183211,-0.047700961614286254,0
37.925,13.175,7.25,11.175,16.7,27.8,57.025,28.7,2573.0,847.0,425.0,818.0,1053.0,1459.0,3376.0,1574.0,19.0,17.0,18.0,21.0,21.0,12.0,19.0,13.0,-0.7019150918299346,-0.507492954842889,-0.460792133871362,-0.3001128383041861,-0.3592917946587791,-0.15868905204024644,-0.09245867557371532,-0.1363754972496993,-0.2319828125356521,-0.22613668520566155,-0.04498566515186895,-0.24717460261143784,-0.5167008178515575,-0.3069924005166576,-0.37695104387043993,-0.3502803540522636,-0.6590365891482691,-0.6542877841897307,-0.692994570780771,-0.5544747271637176,-0.11065765488778144,-0.5990789600044402,-0.3808488422797971,-0.2615074201393243,-0.2923276266224543,-0.18498918589624705,0.010943661917568664,-0.03594479098596236,-0.17300655583448832,0.15450610068907333,-0.14215324539049756,-0.12772898680529607,0
24.55,16.275,6.95,12.25,12.05,24.225,58.275,26.075,1643.0,1067.0,443.0,806.0,706.0,1271.0,3488.0,1639.0,18.0,18.0,21.0,19.0,13.0,14.0,17.0,17.0,-0.7306665346629765,-0.5079683049066124,-0.7530128377987292,-0.40941213991777925,-0.6011627526334635,-0.45995663256693375,-0.29223977082976305,-0.1506832772439382,-0.2734032501693959,0.04889171978986785,-0.2656750775791875,-0.2422421179645613,-0.4870237118222721,-0.27657052502210344,-0.3693220173535696,-0.14879118488170567,-0.4694952691765216,-0.6515220835862143,-0.5525319433158308,-0.4100419767258677,-0.3576582416714526,-0.5326469219857319,-0.6335574699603538,-0.41658673238714117,-0.25850803942897854,-0.1488919036786424,-0.2402639517852445,0.10439534172503734,-0.4512995176830716,-0.256056161231401,-0.13678422604205112,0.06016657057905576,0
21.25,16.1,8.925,12.075,10.825,23.2,44.15,17.85,1432.0,929.0,496.0,786.0,668.0,1156.0,2728.0,1022.0,17.0,15.0,15.0,14.0,18.0,10.0,14.0,19.0,-0.5728792130594476,-0.4258598856916249,-0.49142400823292864,-0.20984443518015278,-0.3534017558705478,-0.2900992120438402,-0.25288540120489617,-0.2234571052546267,-0.4368095118649633,-0.440036888872602,-0.5271506345206539,-0.3725496448871095,-0.5098077874559186,-0.22367551084686813,-0.5427617743867726,-0.34360086253839206,-0.34424514053897975,-0.34951545612943424,-0.031653575269107,-0.12300295901930447,-0.3452211610645032,-0.41512069448780414,-0.5748273055541188,-0.44338353469627795,-0.4313249029777563,-0.3384139712465103,-0.5486449032083259,-0.32646661730427573,-0.4720056055296004,-0.5150520066651316,-0.522131891984847,-0.3414240905743618,0
19.85,14.5,7.4,10.4,10.325,17.825,48.75,17.5,1230.0,997.0,456.0,675.0,666.0,1003.0,2775.0,1070.0,20.0,23.0,14.0,18.0,20.0,16.0,14.0,17.0,-0.5374746646331617,-0.4819783281137692,-0.1093282435410893,-0.1470363638183715,-0.30966609939092343,-0.14438172471218474,-0.3241264682335465,-0.05411514641430622,-0.460324549606559,-0.479520860083044,-0.36093023475882635,-0.2687381932369764,-0.5018485031625667,-0.5434288011908553,-0.4728542687469173,-0.5710091350367182,-0.7695640140096673,-0.8226474685931501,-0.4148687299034849,-0.25794011202811884,-0.3873020761061629,-0.4838463133025268,-0.39490317988586615,-0.39425344667786566,-0.19527093000774418,-0.3576492748348871,-0.14216330373638897,-0.4626728623459851,-0.3834931146305961,-0.16670219087374882,-0.3791523557915458,-0.3666030561891481,0
25.825,13.525,7.275,10.8,10.425,20.5,50.25,19.975,1762.0,970.0,465.0,671.0,719.0,1430.0,3312.0,1306.0,21.0,20.0,17.0,17.0,21.0,21.0,19.0,21.0,-0.6805791802715018,-0.1577713801833644,0.19914992087037509,-0.09197522363877451,-0.6409655627161751,-0.4868193621000848,-0.10446714347682588,-0.253373910759443,-0.45494307859137434,-0.19678186763165084,-0.07760368278181476,-0.09725116011196307,-0.49283837394112684,-0.6970038915620891,-0.3787386238564498,-0.6603615906374036,-0.7191296512884965,-0.46353793443061153,-0.10310098087311517,0.058634749103767356,-0.44432087574562934,-0.6244701545848169,-0.24629018097604236,-0.6582613899633105,-0.5848382012667238,-0.622057666777744,-0.35559086104658894,-0.41299027370967817,-0.7049102443966518,-0.4319945649624979,0.046461787024683406,-0.07384755420480975,0
20.175,15.425,8.375,13.375,12.4,13.85,34.1,13.725,1310.0,993.0,528.0,848.0,842.0,947.0,2238.0,830.0,22.0,18.0,15.0,16.0,19.0,17.0,15.0,19.0,-0.5528284931748402,-0.217383224689713,-0.03028232507537314,-0.24750190118991006,-0.36901068343514715,-0.17413616133657875,-0.15367859287230762,-0.191218674396306,-0.44334104356342124,-0.4320006187653796,-0.11727430911852595,-0.3572607702302432,-0.6305506671458235,-0.6313612842532722,-0.3342763543397453,-0.3526952565540027,-0.6662363469494289,-0.519364595200626,-0.3986601338502009,-0.40359361607902094,-0.33462343077723317,0.011967137397565858,-0.1527187481756498,-0.25715459872312374,-0.4161565178381451,-0.34913275651064196,-0.028858674445091555,-0.15225233160258908,-0.45474331902897897,-0.4639217393125815,-0.13505089214679875,-0.13281310402401716,0
24.675,12.2,8.625,11.175,10.025,15.575,40.675,17.1,1602.0,808.0,632.0,795.0,604.0,952.0,2445.0,1095.0,18.0,21.0,22.0,22.0,17.0,17.0,20.0,18.0,-0.724289399535028,-0.4708047391764279,-0.6210859019935513,-0.6400670026899795,-0.5571598152093951,-0.31070179166658685,-0.2923400264413313,-0.025907535516679174,-0.7847858409090414,-0.5628176457454983,-0.1474167633497625,-0.16891166129718294,-0.9884040484500205,-0.8030406094340193,-0.4692093463363413,-0.3558129442223404,-0.46699681883006683,-0.3375262030570736,0.025035497353039213,0.09184147499864975,-0.39147651162009195,-0.22271313187847372,-0.3822053776111426,-0.22269899645319452,-0.4521712059429817,-0.47627352218400937,-0.03330454931307584,-0.15182979866080584,-0.46578244811013964,-0.4502768237157757,-0.10648265679227845,-0.11004297257466776,0
28.425,14.75,8.275,7.525,13.5,15.875,45.1,21.775,1947.0,908.0,605.0,495.0,864.0,948.0,2846.0,1489.0,20.0,16.0,20.0,16.0,20.0,16.0,22.0,19.0,-0.62636438519856,-0.2971353849231405,-0.27200587620005434,-0.33670494785521354,-0.5347664955794937,-0.7185980935510969,-0.15367580295137112,-0.3735867327196883,-0.7397947205684704,-0.480236869109972,-0.24051283579197724,-0.25046220326095703,-0.47649719140343255,-0.3049041900353601,-0.029596632618001814,-0.15968203327940916,-0.5912258063919505,-0.5592107866525474,-0.4376966504655565,-0.24421725450113335,-0.3689585118682907,-0.3630762017035582,-0.2009300923116928,-0.39377048665030023,-0.5316821653301889,-0.2734888565290271,-0.14915390386427202,0.01698041815973251,-0.9145719970198798,-0.8650232833927453,-0.4084826677622279,-0.22229597484728872,0
28.7,15.275,6.725,9.825,11.05,12.425,27.925,16.45,2043.0,856.0,425.0,675.0,681.0,793.0,1692.0,1105.0,23.0,16.0,17.0,21.0,20.0,16.0,13.0,22.0,-0.8420769231470044,-0.5898072246269622,-0.1724961973615071,-0.1196377416135681,-0.39525130394705477,-0.5201978635637252,-0.2084768806526804,-0.4085417366691231,-0.39218799771249485,-0.1462290904530585,-0.06324128932068641,-0.003491617471221791,-0.7004715593435166,-0.3338867848838459,-0.22414055508209182,-0.1640986028464158,-0.32270015254492124,-0.1120062595105312,-0.16832088635851802,-0.2395888911614849,-0.3764855507129743,-0.26179640931183884,-0.0022574126635504545,-0.17165632435595873,-0.21549565204307644,-0.296215585451415,-0.19227203977096416,-0.26205057719323205,-0.40990424661716307,-0.23410787308922681,0.259711589236335,-0.15236848361668442,0
20.875,16.05,5.9,9.125,10.8,12.0,36.175,13.65,1462.0,1119.0,376.0,565.0,586.0,720.0,2308.0,896.0,18.0,21.0,18.0,17.0,17.0,18.0,15.0,16.0,-0.7319126787489372,-0.44223627774181484,-0.35602362863560333,-0.38225957759843743,-0.6970507952464063,-0.43107233286473473,-0.2834701151125136,-0.1488519007671607,-0.5079093936743496,-0.3310011293597404,-0.47285267040562334,-0.22404407561409084,-0.5065530129346106,-0.230570073821374,-0.29646734357053695,-0.29620148028814874,-0.2447099733840244,-0.2771690430735583,-0.21893549896366712,-0.4835315565221466,-0.198175459726366,-0.060122869647924244,-0.015720085555343096,-0.14673177740284685,-0.274703896412676,-0.16974506063589295,-0.30434518012919054,-0.4297746651917272,-0.6319427304334452,-0.30471685028375056,-0.24911312880808406,-0.2022001788061004,0
17.2,16.05,6.225,10.025,11.875,18.25,35.25,17.55,1145.0,1064.0,376.0,612.0,811.0,1091.0,1945.0,1142.0,17.0,13.0,13.0,15.0,21.0,14.0,13.0,14.0,-0.4830665033644934,-0.23723450372983365,-0.3140856909799445,-0.3252484873416173,-0.4444140346583205,0.018288477189469923,-0.20209010094796215,-0.36343713866142974,-0.3914336451472062,-0.21495789145861152,-0.275848220340276,-0.1385496927523949,-0.42559806932914934,-0.15254548451752048,-0.1041538260664131,-0.2858096554848514,-0.4525302627783664,-0.2440862496731205,-0.1273299029820468,-0.3138676061968074,-0.14922347652907186,0.056520137312534684,-0.2091355970642294,-0.1850056072849362,-0.11519896572496083,-0.2879276126856734,-0.07821673330261933,-0.32124784769639964,-0.38550986910089485,-0.4716532426560285,-0.22029625804128167,-0.32828391993298167,0
26.3,15.125,5.9,7.375,10.225,18.775,35.725,11.175,1877.0,925.0,326.0,528.0,690.0,886.0,1755.0,645.0,18.0,18.0,14.0,20.0,21.0,10.0,15.0,15.0,-0.8632685672557309,-0.4814335641500962,-0.38791439543057965,-0.2475418087450301,-0.41486266698737345,-0.2833658401931811,-0.31947697249204576,-0.20009650105613042,-0.13832667887491268,-0.1854849357103224,-0.26984579626626587,-0.36348138973734884,-0.8068019831487946,-0.5291681225064591,-0.4613503015952389,-0.3241452386579658,-0.6818939121389046,-0.5150756568838375,-0.307162188063389,-0.28875191428467156,0.18876575334640125,-0.26145764507627595,-0.09087864087714094,-0.2422877657412955,0.1004084982177132,-0.5823072739279884,-0.12179546999370074,-0.23941689085977408,-0.24830154344895886,-0.21586744562520116,-0.25558095468934056,-0.10534117900788953,0
23.325,11.325,7.8,7.95,10.375,19.65,27.3,12.425,1643.0,763.0,477.0,484.0,738.0,1008.0,1544.0,726.0,21.0,20.0,17.0,17.0,22.0,13.0,14.0,16.0,-0.8056566062865023,-0.1146931490954629,0.006639063734621981,-0.16109811517786513,-0.505004283499634,-0.2228916712452532,0.14822422490039378,0.03726790995636693,-0.35760904548851197,-0.0009628487939228714,-0.021334921587737626,-0.3278483290527036,-0.28144687837962085,-0.2819935372487798,-0.009771248229452767,-0.20780328174147064,-0.6110668294339129,-0.270879121052974,-0.5586258649145154,-0.35150929081877347,-0.09071493364916056,-0.06501000780536678,-0.14990427770135226,-0.4167020742360221,-0.21412790208112947,-0.27744685342251435,-0.3370549465542322,-0.4202612585125016,-0.25202898026238785,-0.21482968850894188,-0.21170531407098211,-0.4374728856464147,0
26.5,12.025,6.5,8.125,9.1,14.075,31.5,16.6,1936.0,851.0,420.0,519.0,623.0,852.0,1785.0,1033.0,23.0,20.0,17.0,17.0,19.0,13.0,12.0,17.0,-0.7923529110696631,-0.3907995532824152,-0.3453144241112883,-0.46426207108931034,-0.5750927293442935,-0.2961999144774035,-0.01509909391132988,0.06828827488017708,-0.47199828285798967,-0.15424119166054218,-0.45612605969753384,-0.502320443903043,-0.4233600729673359,-0.21592878215826186,-0.4662954878715693,-0.35394570736187897,-0.6010390226883174,-0.26785577951637884,-0.2594574369483017,-0.26196355705961877,-0.1901357394657371,-0.0016441103188507822,-0.21036071809754112,-0.21950647864278286,-0.43201833615161356,-0.5901345032732195,-0.43335103931624025,-0.45166781164632647,-0.535884621501077,-0.32483855018641244,-0.2560891263052353,-0.3818808821542438,0
20.45,13.625,5.075,6.2,9.375,14.025,46.075,19.175,1222.0,862.0,332.0,388.0,635.0,815.0,3026.0,1171.0,13.0,18.0,14.0,19.0,20.0,16.0,23.0,16.0,-0.34241553849868395,-0.05909553039300174,-0.07852173679619703,-0.22461574241538687,-0.5791526009859946,-0.4226305911139396,-0.10665665472289246,-0.10489214796670457,-0.4123648310715039,-0.012713488490966896,-0.24661283927482158,-0.15531555638691769,-0.3791062860069995,-0.29092410980137756,-0.17000884705365196,-0.11945357037785385,-0.5474921690530883,-0.04894040402692776,0.13570481782989618,0.05295096794271675,-0.173463874202538,0.08337374701250116,-0.1499513108717461,-0.34112662154191603,-0.6194998338957737,-0.35965424005901087,-0.3711304249467796,-0.006706723092581085,-0.43890324437880474,-0.336287224762546,-0.4786877541388113,-0.21277060251845767,0
21.325,12.225,6.25,8.875,8.625,18.6,60.2,27.35,1284.0,701.0,360.0,522.0,549.0,1198.0,3931.0,1563.0,17.0,16.0,13.0,19.0,19.0,19.0,17.0,11.0,-0.45099829214517867,-0.39024699577650446,-0.35181584687480577,-0.4357884116282298,-0.37450610309969373,-0.21820669167539133,-0.46500831081747557,-0.2348992005787242,-0.25103236087328706,-0.17847881831522683,-0.21516715016748697,-0.07693511856180224,-0.4026257981599375,-0.5337999469364859,-0.13357310364265373,-0.26561373510041714,-0.3939496535090468,-0.36454546167256113,-0.4137830327901177,0.03515071050718396,-0.4122739187505153,-0.020991239023679407,-0.09414180822610178,-0.38012554259196824,-0.4721281898269615,-0.272270447633937,-0.3580011717033512,-0.1922179049083715,-0.337330622435188,-0.3469582103106847,-0.3577468497978376,-0.2057239292179395,0
19.35,9.825,6.1,10.2,7.725,20.75,51.275,18.8,1364.0,570.0,386.0,641.0,510.0,1342.0,3482.0,1127.0,19.0,16.0,17.0,17.0,22.0,18.0,17.0,18.0,-0.7349438842454623,-0.5262695963245826,-0.4369231688023995,-0.24599154374628748,-0.26633675059750894,-0.0356683542505547,-0.2651593542861562,-0.20774742804947774,-0.29758060984918966,-0.42336669718912884,-0.0209005580599303,-0.16564244606518982,-0.44071782621650263,-0.5562649342164695,-0.34587786654093416,-0.3048223804544477,-0.43169103642882584,-0.15272553634623307,-0.17803642749761406,-0.266221294695506,-0.4632379432264873,-0.2503808524978469,-0.3357883395278012,-0.5980595764765531,-0.8004040780917071,-0.629870418675221,-0.34473534140274975,-0.24456910691257405,-0.3563908753426933,-0.10633898353587118,-0.3615735932052688,-0.4981988118543682,0
20.8,10.2,5.55,8.425,10.95,16.225,50.525,14.85,1427.0,713.0,352.0,521.0,793.0,1076.0,3272.0,998.0,18.0,18.0,18.0,16.0,20.0,16.0,20.0,15.0,-0.8564389527153989,-0.7003330417734642,-0.4500497009049222,-0.09221925805319517,-0.5553553627970408,0.012647081683184774,-0.07269828935459878,-0.23931414105585108,-0.6846992254057832,-0.1993355297129045,0.06233817999072216,0.19188758531007213,-0.515992760222905,-0.4534142032214576,-0.4914392838919751,-0.12310191469130954,-0.6110268097906086,-0.33591850024920733,-0.2285548677568862,-0.09632088077296352,-0.35887176311061975,0.047090442703365654,0.028463684173718123,-0.1796904129285035,-0.6003366463585573,-0.4529391439464468,-0.2308620241798371,-0.2174699532524737,-0.2244183737482556,0.03807065034907338,-0.12272092659774149,-0.3741874476424479,0
19.6,10.55,6.8,9.475,11.25,16.025,48.75,16.65,1258.0,695.0,465.0,651.0,795.0,1136.0,3271.0,1116.0,19.0,19.0,19.0,16.0,23.0,19.0,20.0,24.0,-0.5465917940296743,-0.332444815976671,-0.3311478300103305,-0.4597231049015079,-0.6037878316826643,-0.2740204690758665,-0.13289314623894402,-0.1675407774686027,-0.797801160878458,-0.3633491296023347,-0.22524454074552783,-0.2552132826091889,-0.6177052007646922,-0.25323816874416405,-0.25812107692384206,-0.3285461840226174,-0.5690381358445992,-0.2848176191187244,-0.07019362613988135,-0.1294918173676137,-0.593276365588107,-0.11765568184496304,-0.05282437196055423,-0.18607280050444877,-0.7118105752113938,-0.4341915733664328,-0.42898534597165516,-0.4327691343903131,-0.45518662356879175,-0.03972929068766119,0.07911093091051942,-0.23430058143920973,0
25.25,12.85,7.1,12.225,15.175,19.975,49.125,20.15,1529.0,890.0,462.0,797.0,1091.0,1344.0,3302.0,1338.0,17.0,20.0,18.0,19.0,20.0,20.0,19.0,16.0,-0.815494960226943,-0.9257957458139067,-0.5786682931773872,-0.4542029106927018,-0.8334630795160449,-0.6458152948674873,-0.2674420934527322,-0.15424796058664758,-0.6917269628470853,-0.39874140057002233,-0.20055974026540313,-0.16742128915677223,-0.6838093746151253,-0.512358727075721,-0.5339391504771391,-0.492807797667762,-1.0394319219869992,-0.7548821320867478,-0.33720251461969547,-0.28942373648552555,-0.6493587401254853,-0.39641947976644665,0.04706583440081556,-0.11665890752067984,-0.8051926234351707,-0.6186112811261215,-0.40955672392893594,-0.36288040169510444,-0.6513564707917101,-0.5596575238529733,-0.4111749903763772,-0.31578076383824966,0
26.425,9.75,7.125,10.475,13.525,17.5,46.75,21.6,1885.0,600.0,471.0,680.0,868.0,1017.0,2915.0,1409.0,25.0,16.0,21.0,15.0,17.0,15.0,19.0,17.0,-0.8891350414006314,-0.4704068129952626,-0.17134724535633403,-0.1442725514829331,-0.5793244860565429,-0.48292340277742524,-0.16053864556791392,-0.214876215116791,-0.7130747511566108,-0.216185416146984,0.17010616045887103,0.015098128271243967,-0.5464481027089232,-0.4493194833184279,-0.20516419890084933,-0.3127846030682515,-0.71811517474896,-0.5641549275256346,-0.3660283134383172,-0.28789665487462035,-0.23524627170819468,-0.47343203146522006,-0.32844290337217535,-0.2854066949031442,-0.3049120807185075,-0.027823488841805414,-0.14573991428041178,-0.17883338809970162,-0.6533604976384471,-0.5792761472752614,-0.6061048360294408,-0.487455886238039,0
18.65,11.35,6.075,9.25,8.975,14.475,45.05,17.25,1182.0,734.0,391.0,595.0,580.0,863.0,2991.0,1212.0,15.0,18.0,15.0,15.0,20.0,16.0,18.0,22.0,-0.3818906656446017,-0.3441381812322848,-0.18571748799789126,-0.29933619539234474,-0.5556508537910075,-0.5613389702866673,-0.24075853758043678,-0.5009142534207227,-0.5976460708755832,-0.2678934047551974,-0.0948151932846999,-0.12607813150762945,-0.48329836150413197,-0.35858669653764375,-0.23387193243080068,-0.442984894459574,-0.8286206439490413,-0.6663230246826207,-0.6714291305002472,-0.3703660444406066,-0.1330267003066621,-0.01421029393632512,-0.040641005425942414,-0.20138780818113733,-0.4641897167903867,0.11082620851688442,-0.3666056331105963,-0.5105210410819983,-0.5942303890195698,-0.059761524469860876,-0.2663429761626132,-0.3558064654838797,0
17.05,12.725,5.05,8.525,10.0,16.025,29.4,15.475,1115.0,841.0,334.0,509.0,630.0,848.0,1733.0,1026.0,20.0,17.0,20.0,14.0,19.0,10.0,13.0,18.0,-0.45281751756125266,-0.5547122037561361,-0.345605652805831,-0.3397587105941204,-0.5171671989808286,-0.30855667001816184,-0.05084666156847847,-0.38740206291263235,-0.6611125775337106,-0.549186228970232,-0.31060215539155706,-0.3891921634014767,-0.47077529349528946,-0.5489765787304655,-0.42289359546766897,-0.471268384243283,-0.4397084551012679,-0.34762051420643525,-0.3633487507057649,-0.2808019178617045,0.015162413423470984,0.09995176056911037,-0.0245401349374776,-0.47057327813848904,-0.29196611210349527,-0.38172591220803187,-0.24131095770760466,-0.5438570015344305,-0.6063525098078495,-0.20094718146536517,-0.011039624569824859,-0.014951096729571392,0
18.725,10.875,4.725,8.725,10.1,15.025,40.275,18.125,1264.0,604.0,268.0,532.0,608.0,769.0,1998.0,1169.0,15.0,13.0,12.0,17.0,18.0,13.0,14.0,18.0,-0.5379659647086241,-0.4345375102083874,-0.2719970718054191,-0.1346196711937306,-0.4127787869933106,-0.5356250121808495,-0.44664310066819146,-0.31820242391370474,-0.18830642405877807,0.0033712242461991057,-0.012363728918110734,-0.11923090540395549,-0.1271750057086977,-0.48090910845639845,0.03906903683691216,-0.21458710995670852,-0.1703179298198091,-0.09357982618520483,-0.008287021443722493,-0.23059746581037066,0.1615642971992584,0.16422460178833445,0.004624547210188799,-0.5068363484437733,-0.05577072000854244,-0.051370319358093566,-0.2101847382538123,-0.4544909224180364,-0.42671328463324026,-0.1129157308276789,-0.32372841515719314,-0.1350101449697514,0
21.25,12.375,4.225,7.925,10.8,14.075,40.975,22.05,1342.0,822.0,296.0,495.0,694.0,945.0,2829.0,1395.0,16.0,17.0,19.0,18.0,21.0,17.0,20.0,19.0,-0.4606186110777649,-0.3384565879858706,-0.3146756769698328,-0.22644464325197805,-0.6689164766939579,-0.41944212216145915,-0.3533230394492108,-0.2988422286552514,-0.22353234450629209,-0.06638934336065437,-0.2422346965477741,-0.04181962618487217,-0.45298310548983767,-0.4451939686522283,-0.27223310918558274,-0.3568539280453552,-0.5984788128628818,-0.646769373276442,-0.49637115316567804,-0.3165973519790921,-0.49445469275112935,-0.28283571288907555,-0.32571213731005205,-0.10288390339025337,-0.6818057124914129,-0.3110652072329833,-0.4047621197885783,-0.31550457926598413,-0.40933029666911475,-0.0962558421369444,-0.30291468806961447,-0.43440540914968384,0
21.25,10.25,3.475,8.45,12.175,14.625,35.625,14.775,1478.0,574.0,208.0,556.0,826.0,960.0,2472.0,789.0,18.0,12.0,13.0,17.0,21.0,19.0,21.0,14.0,-0.6064693638049984,-0.4231769527244534,-0.445529902734663,-0.3543846207973258,-0.08117166264975047,-0.05143342738702405,-0.4082378758774597,0.02890557243854689,-0.27382905643913125,-0.42235788212845754,-0.1444243227057959,-0.3032115534750708,-0.5130296711785001,-0.4184561095768804,-0.10705904433699164,-0.3780641672430854,-0.690593305206044,-0.4462748905768144,-0.2574120001632181,-0.1626542551905259,-0.3438045776730566,-0.255809303378206,0.07180343268855947,0.1577092403451312,-0.6338575353177597,-0.2461699938523791,-0.43557416028972495,-0.3571949837086335,-0.37441590877727887,-0.20616572933622843,-0.3641155824666336,-0.18270101072089864,0
20.3,7.575,3.9,6.75,9.05,13.275,36.875,18.55,1333.0,499.0,249.0,435.0,579.0,821.0,2274.0,1184.0,21.0,18.0,16.0,20.0,16.0,19.0,15.0,18.0,-0.6150039514421454,-0.465912392789324,-0.3761219702265655,-0.25026892188413324,-0.28170905818516634,-0.19139388268017857,0.03588740502653124,-0.21239065041758556,-0.33419142138603497,-0.07625950844785617,-0.28226230647772205,-0.2103969425708472,-0.3712571867718613,-0.2915866715262683,-0.377391063412429,-0.22926687792528797,-0.5471201481085324,-0.31266027572480687,-0.1967134464342367,-0.15423599364613863,-0.3481557221717036,-0.11145347772230871,-0.2842948663444795,-0.2702103900213632,-0.3737743468452022,-0.23192984318840487,-0.4375546389963924,-0.270320050351198,-0.5062273458546845,-0.4238148237569571,-0.3958633047113834,-0.5799641909557124,0
20.25,6.725,5.9,7.175,6.85,13.65,43.15,12.425,1322.0,429.0,374.0,466.0,455.0,844.0,2481.0,729.0,17.0,16.0,16.0,13.0,18.0,21.0,17.0,13.0,-0.5313182865601117,-0.4026467271533117,-0.28311406334594963,-0.40613285118876513,-0.32323670238966073,0.08755688741027688,-0.26371899794040193,-0.33311665284525827,-0.5046101128249614,-0.4742939664767786,-0.35537410684640786,-0.21824862063829056,-0.417162775902084,-0.24354040565638216,-0.3788459246295004,-0.3935800923863785,-0.7769855781755536,-0.649080702002191,-0.4245228278220165,-0.23929839403005732,-0.298519646764017,-0.1080671874748349,-0.34287161782109854,0.04545726815931348,-0.5380922662883086,-0.8079722689351775,-0.4154394134673241,-0.5750227244579815,-0.20558469026013593,-0.3473793516086239,-0.294953314064308,-0.11383179124536669,0
20.125,9.375,6.95,6.475,8.175,10.7,38.15,14.95,1430.0,565.0,437.0,461.0,502.0,592.0,2360.0,912.0,21.0,15.0,19.0,23.0,14.0,13.0,21.0,18.0,-0.725606687388407,-0.5646372965196442,-0.5953018911333484,-0.6626277568910447,-0.3231044851921611,-0.336962637843595,-0.358599148903902,-0.32933819798868424,-0.46550816717235516,-0.2777305206028873,-0.062331237601559446,-0.06789343222728264,-0.5774047602794932,-0.20527401153980626,-0.14342713726287418,-0.13892083213960582,-0.49204607254002486,-0.4333776357688013,-0.14557136821369324,-0.09733758489813678,0.06441014667948197,-0.21414298879536148,0.1110297715169861,-0.37299895031694014,-0.44990374681858136,-0.28627105055151525,-0.24782150625669266,-0.15350424914560945,-0.4725257842134448,-0.22553635252810794,-0.41827925267412847,-0.3400526256371182,0
20.075,8.475,5.55,7.25,8.7,13.475,36.9,23.1,1313.0,524.0,340.0,484.0,555.0,812.0,2279.0,1710.0,18.0,19.0,17.0,16.0,12.0,13.0,21.0,22.0,-0.6307552171913597,-0.47395396605103446,-0.28460065279775887,-0.1841774720723978,-0.20952114876559183,-0.20598111563935922,-0.26166188243291827,-0.21825845754560283,-0.3625733802922622,-0.2620829227877807,-0.21931698546112716,-0.2744659147002556,-0.6219420028327497,-0.5861304181535034,-0.41859766697143674,-0.27308057125650115,-0.5948026630373449,-0.8849585694794917,-0.44464415944913827,-0.4417847968781702,-0.14322448522956283,-0.067587497668199,-0.23676733544018932,-0.044581864668852424,-0.3328449657342598,-0.348288607872743,-0.2645985838554576,-0.11550697617317325,-0.9407434768110692,-0.5131512180794694,0.024385640680095487,0.2057423545513053,0
24.25,9.725,4.525,8.425,7.175,13.4,35.5,14.35,1593.0,634.0,267.0,522.0,459.0,745.0,2372.0,996.0,16.0,21.0,17.0,14.0,18.0,16.0,20.0,20.0,-0.4599850603735867,-0.27956245421464204,-0.012269944947244588,-0.21453750749145026,-0.6801192374610332,-0.3709823758312425,-0.3939110567113809,-0.29640936568352194,-0.3395743874832418,-0.5098997468512901,-0.44187155305697,-0.18654826774341277,-0.43045475669324107,-0.5572718666220304,-0.28449053040440714,-0.19568851694660835,-0.16962224074374677,-0.029682788749230686,-0.2529159539913018,0.19253502848508758,-0.03392838639498919,-0.011905045416541178,-0.2607888013510732,0.04252129592420765,-0.6843905491059451,-0.3899666767507527,-0.3916795690860458,-0.3014378564736706,-0.5556099802509632,-0.3677080226540453,-0.325615021670354,-0.38090793809552964,0
21.825,10.375,4.625,9.425,6.2,15.925,37.7,13.55,1456.0,709.0,269.0,619.0,413.0,1109.0,2603.0,790.0,15.0,20.0,12.0,18.0,21.0,22.0,21.0,16.0,-0.43589027801836033,-0.45078019668323405,-0.2710624979537513,-0.40781501514601587,-0.6491606587167399,-0.404262166011586,-0.11911488078739485,-0.20506469239525413,-0.3014739165210402,-0.15380248437575667,-0.17307313583703215,-0.1219797742610895,-0.48001213185379715,-0.2442629670972544,-0.07135279323635346,-0.27249444196109524,-0.6515082952694147,-0.3044928564755951,-0.1966245045698881,0.046984189743657465,-0.6475261418888348,-0.4334667027950521,-0.3651708291265657,-0.09815023829439835,-0.5423795667893316,-0.16041177695630462,-0.2709265570892757,-0.4046386217713203,-0.3486498278321681,-0.29057908062513554,-0.24127828555200667,-0.15205962953691726,0
21.975,7.775,4.7,10.325,9.85,15.3,55.975,19.85,1489.0,402.0,317.0,717.0,607.0,903.0,3754.0,1333.0,19.0,13.0,19.0,21.0,15.0,18.0,18.0,17.0,-0.63485898302354,-0.3539349002533058,-0.3394961301355571,-0.280531300357413,-0.17645194576135667,-0.27202129885032755,-0.359808528895173,-0.05744577114251963,-0.3215315406358918,-0.4123019125598656,-0.2153207618132897,-0.40642106636304215,-0.49110527141848237,-0.509145499967757,-0.2045002017254915,-0.38899814268189364,-0.7616195411335456,-0.7267819813525797,-0.6008310484859043,-0.2924217758906681,-0.42565777862700754,-0.26326249269631946,-0.25156582233771374,-0.11195962024487034,-0.8117412813078169,-0.685303945789138,-0.45362232180301193,-0.11039177334430982,-0.5942604546193683,-0.37862602672720996,-0.21230607310765015,-0.2570775570875718,0
17.25,9.25,5.8,7.875,10.95,15.075,56.2,19.2,1130.0,499.0,371.0,462.0,755.0,868.0,3604.0,1270.0,16.0,19.0,18.0,14.0,24.0,18.0,18.0,19.0,-0.6514367809135515,-0.4214483754423786,-0.5658953250684844,-0.40624820354721913,-0.18556044514245926,-0.31888804657569203,-0.2848654290555799,-0.27375677621463057,-0.31348800104066366,-0.24370188031283826,0.06933581858882229,-0.17108210100819815,-0.04274053851985968,-0.45063827883411095,-0.01074130258873978,-0.4649501345154715,-1.030579226801532,-0.8761800429346475,-0.8628994290927828,-0.5941527673458764,-0.30936103439379137,-0.34146891156712567,-0.2130261561108545,-0.18344167283172608,-0.6484461481064008,-0.6970194780745159,-0.43194248965091264,-0.17556298657861136,-0.6615895563756861,-0.4376736302998291,-0.2708588037605618,-0.2615739631934338,0
22.25,9.925,5.15,8.05,14.85,21.725,67.55,32.275,1543.0,620.0,338.0,500.0,960.0,1235.0,4262.0,2118.0,18.0,19.0,19.0,20.0,16.0,14.0,21.0,17.0,-0.6634648284998599,-0.6655302463449717,-0.23734175967479723,-0.2680958051934188,-0.5812497201221676,-0.4984393221399966,-0.42890708836838903,-0.2825566008329099,-0.5557325930810366,-0.09712484848862098,0.027479361689124748,-0.26293116343651257,-0.2688212611490176,-0.044415683947221125,-0.32969500795239753,-0.2084559796769844,-0.6897466741327885,-0.49821843963203916,-0.17003685881067895,0.01189447037058372,-0.5028043670625777,-0.4417823736580653,-0.39323975188532045,-0.3749120956693752,-0.6095256263554073,-0.5342608094198619,-0.3118683188614737,-0.45181750107598107,-0.9536023145318362,-0.7821758774732024,-0.7523390279946012,-0.47102322106219346,0
22.875,11.275,6.2,6.6,20.875,39.825,90.35,52.05,1427.0,685.0,346.0,481.0,1172.0,2444.0,4563.0,3297.0,16.0,16.0,17.0,19.0,14.0,14.0,16.0,14.0,-0.44913842550043714,-0.4350818276431813,-0.25211575136188613,-0.3128942290019651,-0.4852032593446998,-0.3901379733380122,-0.3340675991048462,0.014823078866129043,-0.08308062529498128,-0.12498661089957394,-0.09123166838349844,-0.053584182303433404,-0.7377516582452689,-0.07003604491483144,0.01798698978016995,0.12448626635384874,-0.39040426935026734,-0.548044027355906,-0.4258497093882043,-0.2396973486422505,-0.5067107083661726,-0.41737696617142184,-0.43450496337558125,-0.2064512138232545,-0.3326477545973957,-0.3861814508848218,-0.16398749691356998,-0.1855373642232248,-0.6825617323583347,-0.5977151098320773,-0.5430816158210602,-0.3552017196378437,0
27.125,11.05,7.075,8.35,21.35,45.525,81.925,49.7,1635.0,687.0,394.0,533.0,1134.0,2426.0,4117.0,3020.0,16.0,14.0,16.0,15.0,14.0,14.0,16.0,18.0,-0.639945508838906,-0.7646874470957907,-0.6472996522632548,-0.41202950988467846,-0.7005302363792996,-0.6445554668273153,-0.7747613175311286,-0.46693268503501945,-0.48246725870857926,-0.6729900930261826,-0.30648500155067765,-0.19333858530970088,-0.428894138619362,-0.2942975086761224,-0.22654095996939935,-0.39730491720417027,-0.7132993938007072,-0.8223237380045588,-0.8125454003670117,-0.5180361212103801,-0.7053832138325751,-0.8203490920769074,-0.8028903351849235,-0.4153908573307357,-0.20726770277242124,-0.41834300666232777,-0.1340000834857189,-0.2841527095071124,-0.642087764935374,-0.7502225123110581,-0.4848814228613435,-0.4902527728060811,0
17.625,7.775,6.75,10.725,17.45,36.05,72.175,40.475,1143.0,483.0,390.0,744.0,1136.0,2401.0,3779.0,2366.0,17.0,11.0,15.0,19.0,20.0,20.0,16.0,14.0,-0.22912273661135407,-0.5000615521499676,-0.08034959922415187,-0.5585354204207613,-0.26013434579482747,-0.3905208462804968,-0.26135227963583624,-0.263845805258254,-0.4150241034500688,-0.7021953023035881,-0.3611321885670925,-0.3949267116380236,-0.6543796643866487,-0.47398057380251973,-0.5504303794700185,-0.3450144070145228,-0.7094438213702384,-0.8175677819927478,-0.5179639871069649,-0.271378727303053,-0.6821096668669274,-0.7318380551278509,-0.5774217880015726,-0.492949700281477,-0.14318780010577198,-0.2618483657608818,0.0011425194279062298,-0.1716166834893914,-0.5302377458870489,-0.4607894252406456,-0.5283886196335246,-0.5240647271043712,0
19.825,8.275,5.975,7.55,20.375,38.95,73.0,40.275,1250.0,565.0,365.0,462.0,1287.0,2406.0,3717.0,2348.0,19.0,19.0,18.0,15.0,19.0,18.0,18.0,15.0,-0.4088896804051577,-0.3084822399024859,-0.19226996500043333,-0.4609389152071385,-0.5019700240002113,-0.48022324680036355,-0.21005636598076421,-0.2548571506181336,-0.4176556805213889,-0.4497965266006059,-0.18908823032473382,-0.3083848948735847,-0.363244962270277,-0.41018219050601384,-0.1553592793328775,-0.37530044466774315,-0.5186556743954504,-0.4845845365163041,-0.3200141201195934,-0.4461634151833246,-0.4185851373889811,-0.4465509394818599,-0.22907018372067597,-0.41330895878069146,-0.0781922014439497,-0.17322929085757452,-0.2087311676988515,-0.015818442308100006,-0.15460610989359644,-0.43097825278303276,-0.1083051064161878,-0.19279909064130513,0
18.425,9.35,5.775,8.9,15.025,25.425,61.675,37.85,1343.0,610.0,379.0,561.0,1026.0,1700.0,3295.0,2446.0,21.0,20.0,19.0,19.0,20.0,16.0,13.0,16.0,-0.8953319007765557,-0.7532066035447449,-0.33220035333039516,-0.2038709225134975,-0.5205704102531508,-0.33346751647827744,-0.4878379918673326,-0.39760242045399435,-0.645029217845381,-0.33789115056548097,0.06480199851424394,0.07031062048854987,-0.5119818651407727,-0.6177459899037868,-0.2323774777202987,-0.2551805648217749,-0.7097755916099193,-0.4835209350952466,-0.5416574634012149,-0.40302581315332886,-0.4444314160599728,-0.2207955169302402,-0.44845981443875055,-0.36789826976549767,-0.1525659811676577,-0.07214862005442171,-0.09140882455460866,-0.10417330779977836,-0.4739235371626325,-0.28651336883408085,-0.26057415075379187,-0.05685238865099494,0
22.075,9.65,4.575,9.025,15.625,30.35,61.05,27.825,1447.0,640.0,313.0,559.0,1080.0,1864.0,3415.0,1919.0,16.0,20.0,17.0,18.0,19.0,16.0,17.0,17.0,-0.5879547509338324,-0.48826672596544335,-0.34090947068660865,-0.2646821162909703,-0.45844250919274415,-0.08054515821109019,-0.29715079577715187,-0.5070756619172191,-0.6575014813511093,-0.1294748072153386,-0.24625498661266862,-0.21833410054350352,-0.39004598131177937,-0.38926018772349275,-0.21224327403345444,-0.32983113277711384,-0.7024134076205758,-0.5488367617500548,-0.5790887827984998,-0.49481380504186906,-0.5141241340109274,-0.5257572490637857,-0.5102128899669754,-0.5907267633241834,-0.32417739727687156,-0.5019239807649942,-0.28041329366706025,-0.5101810165501407,-0.5896531889177815,-0.41856583758177085,-0.3283436350942477,-0.4139476768699256,0
19.525,8.7,4.25,7.15,12.575,24.4,56.325,25.575,1312.0,557.0,250.0,386.0,784.0,1480.0,2835.0,1728.0,18.0,19.0,14.0,12.0,16.0,20.0,15.0,17.0,-0.8002250711866395,-0.6585384699761114,-0.6206890516577734,-0.34660687062901585,-0.4942791105871996,-0.4389654832253926,-0.157713473749761,-0.3260252062697916,-0.20554052601316736,-0.32348450055782385,-0.1900186578375593,-0.19721280872617722,-0.009192216346392326,-0.293023081055057,-0.1883800657873265,-0.23958083888961137,-0.6521679003647979,-0.5537485410293012,-0.4087768492817325,-0.19672813467607447,-0.6644479985753045,-0.6111815923005073,-0.5843708343466368,-0.4022972198051132,-0.2529181296525978,-0.3225822890121686,-0.30283652567818864,-0.2634115961667391,-0.7179626689697823,-0.5961726611032223,-0.5019621297919932,-0.3209519150200391,0
21.8,7.425,4.625,9.325,10.225,19.1,55.325,21.6,1552.0,494.0,321.0,601.0,678.0,1080.0,3269.0,1384.0,21.0,18.0,16.0,17.0,19.0,15.0,18.0,18.0,-0.9779713014476837,-0.850458794770129,-0.522555320743679,-0.23792933822048212,-0.5285403744127737,-0.580891832168644,-0.4308241846127403,-0.35897811654989215,-0.5329061038098779,-0.2742214526443963,-0.029762627851994485,-0.12232077233993553,-0.4322905840543214,-0.5129825842577938,-0.39278519700924525,-0.46779002787999957,-0.6584803595631509,-0.28134072585233516,-0.3194353344677173,-0.2430464986664147,-0.22297331184074676,-0.18136209338024045,-0.4408999339328091,-0.1882046370053859,-0.38264290234037396,-0.3633258487271698,-0.21192467226232853,-0.12277930548122905,-0.5801307468183657,-0.39932051042298916,-0.4941114150512077,-0.3022630181436293,0
21.45,7.475,4.975,8.375,11.975,18.025,53.25,15.275,1525.0,480.0,309.0,501.0,770.0,988.0,3468.0,959.0,19.0,18.0,15.0,16.0,18.0,15.0,18.0,18.0,-0.7497588660323236,-0.4032635029325966,-0.21370771103819805,-0.1943789770152101,-0.5353159614878701,-0.3986906294352506,-0.23903786646827252,-0.32994150991231325,-0.2953091817290897,-0.21769710489476335,-0.06723088399994999,-0.007866790552689122,-0.24266834577667473,-0.5054951659643766,-0.023442065139944828,-0.06510490660911217,-0.6159439366856662,-0.4586261166510391,-0.49499586203652046,-0.34386644934433064,-0.2291977886390465,-0.3206128893800103,-0.4938983462713459,-0.2304425826495885,-0.4465519049455793,-0.2633202089274805,-0.18554855168178375,-0.07485373474028617,-0.2080410614792631,-0.1318361205434826,-0.11157895953909039,-0.2738731059758933,0
17.125,8.025,3.9,8.15,12.15,15.25,49.675,17.05,1189.0,524.0,235.0,468.0,803.0,877.0,3252.0,1107.0,23.0,17.0,17.0,14.0,17.0,14.0,21.0,21.0,-0.772033461272766,-0.614664362792613,-0.2741481224405991,-0.1886672288891244,-0.2913727682610353,-0.006015681704643816,0.131158877624426,-0.45908073727100196,-0.22332962617912688,-0.25316703026205095,-0.25622255145820055,-0.4206546019937218,-0.3382545074401855,-0.44579407479139377,-0.27947211750127365,-0.3934765972266505,-0.7782927095249539,-0.6556460509987696,-0.4916202582424239,-0.4760775680942679,-0.22777832200446096,-0.08488117725409494,-0.08724535123322344,0.05131293278743329,-0.7323208988071227,-0.41340853507319475,-0.260555018566566,-0.18074048153810782,-0.27460521139765703,-0.18785795657171983,-0.059995247447755376,-0.16000022977804157,0
19.9,6.45,5.825,7.875,11.525,16.0,44.35,18.675,1270.0,391.0,374.0,499.0,782.0,1095.0,2720.0,1032.0,15.0,17.0,19.0,14.0,20.0,17.0,16.0,16.0,-0.5905009496719767,-0.5249934050941666,-0.45694699399644884,-0.1330050458241999,-0.3138833564474272,-0.16791461724854592,-0.06998347416285956,-0.17181890622677526,-0.49942614354992043,-0.4852191026292753,-0.26661059546548904,-0.40973663116320475,-0.44432387014910185,-0.3975805976657913,-0.23877497954109425,-0.07657305437388807,-0.41410386955563017,0.0244738532301831,-0.07245235672313982,-0.27928792896384025,-0.1712806437139297,-0.09906270652690526,-0.20180804740816521,-0.38594475623012264,-0.4336786578219435,-0.3633724866868897,-0.343077394293642,-0.2567231239843346,-0.3724864684936148,-0.4442867747291622,-0.2681042887504658,-0.3183272323000298,0
21.425,7.525,6.075,8.725,9.725,12.65,43.775,18.25,1343.0,484.0,393.0,590.0,700.0,787.0,2679.0,1085.0,14.0,18.0,20.0,20.0,19.0,14.0,17.0,19.0,-0.5546439210163453,-0.5688430103298577,-0.43222246627469446,-0.4047245537103591,-0.6412513179559195,-0.4827384546048446,-0.34597846232852425,-0.19019575162243185,-0.5773657338775388,-0.4681061455030999,-0.045909364232352125,-0.24093982589658877,-0.45181317177235425,-0.5309024222848894,-0.2244164204396654,-0.34555851029283646,-0.5497098380975086,-0.3194227077419788,-0.0367626095197944,-0.2613693486294205,-0.24475331841147932,-0.18880241434374007,0.009530016513399953,-0.2924885250803386,-0.3353443125046689,-0.527574596473353,-0.17969087124895194,-0.5187263522079893,-0.32211461185176266,-0.3096259743282582,-0.15726232111916327,-0.22393382885539412,0
20.8,9.35,6.025,9.025,11.825,17.95,44.05,18.45,1252.0,651.0,362.0,513.0,742.0,1046.0,2533.0,1094.0,20.0,24.0,16.0,14.0,17.0,14.0,15.0,15.0,-0.3234977044286923,-0.44715719173740576,-0.2778307710767073,-0.12540798700764452,-0.7031255055961592,-0.24853991272658885,-0.2338524358464079,-0.17385333503527345,-0.22858553889013683,-0.2087472778578443,-0.08682457983231627,-0.3943347808407836,-0.2789576788992184,-0.2260978053030742,-0.3622014069189419,-0.3252190367427684,-0.31954019536914263,-0.4992276150533915,-0.1826449655991984,-0.327552565807819,-0.08727799440778615,-0.04527590203849713,-0.20357692133117336,-0.2947823043314145,-0.15484837904793242,-0.3636578903167621,-0.09292102396707731,-0.2562250779209361,-0.2915968510261428,-0.1302301412923713,-0.14992941648161048,-0.19043312539251814,0
23.85,7.875,4.85,8.475,9.075,17.55,41.025,23.1,1697.0,590.0,275.0,546.0,545.0,983.0,2269.0,1308.0,21.0,23.0,13.0,17.0,16.0,19.0,14.0,16.0,-0.628149705219112,-0.36566828601162127,-0.36109105328110047,-0.22633732209865393,-0.7386873884826034,-0.2393956474676277,-0.22282370513920927,0.013031474223628287,-0.38983815304617336,-0.4472416933755171,-0.5410982110529312,-0.20241300092360026,-0.3889291768067775,-0.058856719764865034,-0.1763270122096777,-0.2760507640898332,-0.36455596055942785,-0.2586848311340811,-0.19470014892472515,-0.23060679771005324,-0.2823590771885351,-0.4302714617189751,-0.2325777895540255,-0.4402789725965968,-0.17421483811205296,-0.3775164543382468,-0.2004216080747842,-0.3098042810848334,-0.2701785543887715,-0.4336754063680107,-0.2331930435702623,-0.20966729492342223,0
23.05,9.45,5.675,5.525,9.275,16.475,46.75,25.8,1464.0,672.0,375.0,348.0,537.0,898.0,2911.0,1727.0,16.0,19.0,18.0,19.0,17.0,15.0,15.0,20.0,-0.4239443820606476,-0.5511821419415662,-0.2721781184837173,-0.2610266085213865,-0.5573022701963858,-0.06521560905336694,-0.3488598537333854,-0.15389750893980506,-0.5302312002803573,-0.2162193660505786,-0.40224933282499287,-0.4453732507747182,-0.26619938686079464,-0.03377416383122911,-0.23506578207695758,-0.0833639914982567,-0.4411226731450573,-0.4928793944134346,-0.4167376893519189,-0.23535176869776395,-0.18819094094665412,-0.16498099816447973,-0.10920407863578513,-0.3724209338427418,-0.4429426889040981,-0.3224904099247462,-0.2699942207483929,-0.4619167924020816,-0.6753519860829558,-0.7568883844405176,-0.39395883340524585,-0.37275247627607194,0
21.6,8.475,6.4,6.775,6.6,14.575,41.35,12.625,1351.0,573.0,417.0,467.0,418.0,915.0,2627.0,793.0,18.0,19.0,17.0,20.0,20.0,17.0,15.0,18.0,-0.7352836282233811,-0.7393533977607535,-0.5104038486043893,-0.26796866589660273,-0.6943947425300248,-0.2382692049351673,-0.3478831495256682,-0.33658198404756334,-0.5355747687960589,-0.07805351294524707,-0.41531928065440793,-0.47048574472314764,-0.5048016187083845,-0.30941459507581737,-0.059275079417766004,-0.4302242726296653,-0.5126140487192768,-0.4906308762547904,-0.2241928140869997,-0.18725798210452432,-0.3170481984893867,-0.14900336410792114,-0.15711219533847928,-0.28199723238561525,-0.6978274735793294,-0.4627064501452869,-0.3635397443731554,-0.34289456628116244,-0.5181052069310043,-0.24363540310504633,-0.182421839865419,-0.13370327646026006,0
21.65,7.3,4.725,7.925,9.175,15.15,42.375,16.9,1544.0,472.0,277.0,483.0,565.0,1019.0,2236.0,1124.0,19.0,16.0,15.0,13.0,20.0,19.0,15.0,17.0,-0.8408103020594241,-0.6778238928514052,-0.17985940012244217,-0.11676098360787204,-0.6062418164135305,-0.38491779688026234,-0.5282354382759674,-0.20781524021784456,-0.2805679159373131,-0.2844763758536585,-0.3437085654877425,0.020792333337350064,-0.5127791638052126,-0.5708117006306067,-0.395287239378259,-0.5197462565776776,-0.4425983218346556,-0.15250968039614762,-0.19572373233172863,-0.22967677461064276,-0.38816279241018653,-0.23905376508500997,-0.2822171580439195,-0.1673449790127519,-0.32032734337459035,-0.29558158444698635,-0.29390518562690665,-0.2572578549115714,-0.5906884730173951,-0.504144122602789,-0.33351668977725873,-0.23345452345062104,0
19.35,9.675,4.425,8.575,12.575,23.325,33.75,13.825,1343.0,610.0,229.0,470.0,822.0,1179.0,1751.0,880.0,17.0,18.0,15.0,15.0,17.0,9.0,11.0,14.0,-0.591845838911498,-0.2460701000937334,-0.2865296138543524,-0.2900146372773452,-0.6319708095979543,-0.49307527270908236,-0.3820275346151957,-0.34083647613672796,-0.17488171836146618,-0.3084390374275579,-0.243539993864597,-0.1176881917181548,0.24742533060719,-0.443780608340061,0.02241967889426509,-0.1910031613957431,-0.5002668607763446,-0.25651548296030047,-0.4621171455820304,-0.21223728526624833,0.15375422254008764,-0.40989541118167505,-0.027370378288835456,-0.35017072271831534,-0.1352222712596927,-0.1774690763359568,-0.34139517709946726,-0.01696016936979461,-0.48552364122241704,-0.3549317044583964,-0.4385328578358824,-0.24308677503984505,0
25.025,8.6,5.7,8.275,8.85,18.85,38.075,18.025,1561.0,505.0,343.0,484.0,539.0,932.0,1923.0,1167.0,18.0,16.0,17.0,15.0,15.0,14.0,14.0,21.0,-0.346081885747429,-0.050096281185596246,-0.234267269180047,-0.35153824062636546,-0.24346404071759942,-0.24006406170467107,-0.013698911876147354,-0.28875171091009066,-0.3605817980489865,0.006260231857441215,-0.3898480294428471,-0.49385001926534505,-0.2011144797626865,-0.1036775154955819,-0.3051381568145581,-0.2644175872569119,-0.46000113427703576,-0.3491331928993311,-0.34456384028982107,-0.3749282255143597,0.04419220893320105,-0.2795096001382278,-0.27005134497730987,-0.13065979018927115,-0.22993196126989657,-0.48984078395874997,-0.35226739108733796,-0.40432769050274875,-0.46295524055518716,-0.23950312264176524,-0.2452337924349406,-0.06691204217925502,0
25.025,10.875,6.275,8.05,7.825,10.9,39.125,15.675,1657.0,730.0,423.0,551.0,543.0,641.0,2230.0,1056.0,19.0,20.0,19.0,19.0,22.0,17.0,13.0,19.0,-0.6968928476557605,-0.35812714081124225,-0.38757625673018586,-0.34105302986363994,-0.5972153292215183,-0.17172077422419815,-0.12317471720655328,-0.1314348210757609,-0.5448504247072924,0.04495954079086825,-0.0014144456109475834,-0.10202198272676635,-0.5404152391518484,-0.1898085077396291,-0.41259082440635386,-0.2469205804311966,-0.5657057159026787,-0.2591976594627289,-0.34888998404518645,-0.48036420484450526,-0.10246912984787623,-0.3004174298592518,-0.3033673193237225,-0.18207219732866212,-0.2980186650114011,-0.44240756204283566,-0.3499022366652675,-0.34260684051598944,-0.5066718652066604,-0.26447731099415733,-0.18817166401561136,-0.18180940115179664,0
18.475,9.925,5.9,8.275,9.625,13.55,29.575,12.8,1279.0,576.0,398.0,579.0,681.0,822.0,1556.0,838.0,20.0,11.0,21.0,20.0,23.0,14.0,15.0,16.0,-0.6550350909523044,-0.1453335260804381,-0.3673627363404001,-0.4697044451324871,-0.4122181347126078,-0.110950322007546,-0.30915751534842534,-0.2346770974879096,-0.8379100932784488,-0.4864350005946712,-0.5110463674980583,-0.4287343505585075,-0.6037252239267981,-0.5536246000892774,-0.15096506174237714,-0.09130982670514116,-0.87180142163922,-0.5338498386957911,-0.29413189284457864,-0.2207274564181584,-0.09957396940342096,-0.2711404069299363,-0.17230267426449278,-0.303677222660999,-0.15251444750611493,-0.2120713890880465,-0.377850841254833,-0.498499553262676,-0.33615646582425984,-0.14844657261830424,-0.14004076829670925,-0.45942732580100704,0
21.025,8.325,5.525,6.6,12.875,18.875,38.25,13.675,1531.0,503.0,368.0,374.0,872.0,933.0,2088.0,823.0,20.0,17.0,14.0,13.0,16.0,9.0,13.0,14.0,-0.5927409325656475,-0.002073865582851348,-0.13825321746239091,-0.4180152720362788,-0.26021512535427904,-0.16221511809545164,0.023905670213669298,-0.2937722068239384,-0.5634685124768,-0.3364753840110699,-0.49631028098898256,-0.428230534754152,-0.11603560601959861,-0.182467722538541,-0.24586744484579826,-0.3384773461188478,-0.6402810214129788,-0.3745894370529719,-0.2570610583664171,-0.36683113471327944,0.25465420083618007,-0.21539116690770316,-0.1278375440708173,-0.16261161653119802,-0.0749407472297134,-0.45747721256814544,-0.16046519560939493,-0.25336034468621377,-0.3752420299032148,-0.44959173914382095,-0.34548157217777264,-0.2954580131724069,0
21.1,8.2,5.625,7.65,9.925,15.55,28.975,14.1,1379.0,569.0,315.0,525.0,600.0,934.0,1719.0,839.0,15.0,18.0,16.0,15.0,17.0,20.0,15.0,22.0,-0.6200760287064755,-0.31315463130302373,-0.35862803901459467,-0.26186677256685775,-0.4552752006323988,-0.41700766083101865,-0.10606033884033395,-0.07351704863360703,-0.43073444548177836,-0.41576431501580086,-0.21108576759085135,-0.11240487846583505,-0.2979623752566577,-0.006142520061232732,-0.12504221365870666,-0.19552190585379303,-0.37216234057801567,-0.11139129725115902,-0.2255086710830482,-0.2627242268552952,-0.21335873901278588,-0.14074701363860717,-0.22742216525292694,-0.3924833962712058,-0.09439330121507765,-0.27541194928426777,-0.18319129678433005,-0.34685749545982547,-0.29165076657431604,-0.3525494370402579,0.0165041018626315,-0.2088984705486288,0
22.35,9.425,4.8,7.3,8.775,16.375,37.825,12.6,1531.0,564.0,288.0,479.0,499.0,848.0,2145.0,651.0,20.0,17.0,15.0,11.0,15.0,15.0,18.0,11.0,-0.6233271703617588,-0.40642790134678014,-0.1729313191200603,-0.23119252271303736,-0.22438703901859278,-0.4916162810465674,-0.20808186121931832,-0.22936662015540793,-0.4920456742759154,-0.6943175614812043,-0.4462729515783735,-0.23091544510420517,-0.39031732482463055,-0.43660902048751893,-0.37473003368302565,-0.36794719630660017,-0.20076641803932124,-0.1995778628413129,-0.2186780922970144,-0.7132544190381483,-0.10218863762020076,0.02513892729957982,-0.32024569224863747,-0.3776719237857057,-0.34089836005032975,-0.10459220502525288,-0.4152039556531845,-0.47491241012888386,-0.13623305970779812,-0.24959126028766088,-0.21622010010752096,-0.21545989220002312,0
22.4,8.45,6.15,8.95,10.65,14.4,41.875,14.05,1370.0,514.0,364.0,541.0,698.0,806.0,2307.0,826.0,15.0,16.0,16.0,15.0,22.0,17.0,15.0,17.0,-0.48607615614969374,-0.524040533493331,-0.557659670707328,-0.3187822895528095,-0.3031790983373364,-0.3582549073676224,-0.3561574613410195,-0.12491008487210477,-0.16799740802342622,-0.22608093961785133,-0.04057149159616197,-0.4443015637777387,-0.20916460926722902,-0.14741543182528338,-0.2883934297434426,-0.3594038797104461,-0.5486735286269404,-0.11364585300239409,-0.5140943593309051,-0.45646577801297333,-0.015309944334797434,-0.11235554739150336,-0.11789026860382101,-0.23333409702700175,-0.2584747042328897,-0.43298549157265487,-0.08272016264553064,-0.45627080864130654,-0.10761674879700736,-0.31576723808807994,0.018319569974463285,-0.16589237428997336,0
25.4,6.0,5.875,8.45,10.15,19.35,54.2,19.0,1707.0,346.0,354.0,565.0,646.0,1190.0,3189.0,1274.0,21.0,12.0,12.0,17.0,18.0,20.0,17.0,21.0,-0.8533727371240517,-0.6189265033891083,-0.5206080623987328,-0.2872101043437411,0.003978942720777136,0.0035882592578955386,-0.08970347745545099,-0.060887472239509875,-0.4087341220004048,0.01771884111327969,0.12289262338493293,-0.07492783208074642,-0.6914020544866293,-0.47336588314832895,-0.5638358450548937,-0.36796702190604635,-0.6214553507893031,-0.2595747493870063,0.0019147563740577035,0.03572328576223936,-0.6371889029530932,-0.26162331983740567,0.10413088008344629,0.10145023905911267,-0.24773045127364218,-0.19783877726606466,0.04442299341207595,-0.2441537400746283,-0.7163697536208211,-0.4121157273506879,-0.08628818480411347,-0.12534577279284304,0
24.15,7.15,6.1,7.275,15.225,26.4,66.325,23.25,1630.0,463.0,425.0,432.0,986.0,1537.0,3868.0,1564.0,21.0,19.0,22.0,15.0,20.0,16.0,19.0,17.0,-0.8404602521367213,-0.6715109007543202,-0.3656316318797452,-0.1978997107889005,-0.41109336572727445,-0.195524365608603,-0.17471849661534639,-0.011752471790616939,-0.5771582882521857,-0.2475410940989512,0.01537196693329325,-0.10189724244055895,-0.29088816179359067,-0.37019743315171827,-0.09376494515247896,-0.3590473797703538,-0.5421014721576913,-0.4628711633281631,-0.22066153096858757,-0.17138951841032854,-0.4570779404938499,-0.3836307915644915,-0.2804541327883685,-0.3419817933848624,-0.3290855836061224,-0.10462531114781583,-0.20362450216668332,-0.2834270239190456,-0.750763346577712,-0.6078398556559461,-0.474452582504771,-0.26682992775290293,0
23.175,8.4,5.675,8.45,11.525,17.7,56.575,18.05,1277.0,568.0,369.0,539.0,822.0,1032.0,3577.0,1092.0,13.0,18.0,18.0,13.0,24.0,14.0,15.0,15.0,-0.34282450838966727,-0.5216969238033179,-0.2871816118940306,-0.17619055210024337,-0.54677245615813,-0.4734857055317261,-0.4648246317926707,-0.14224035261683524,-0.25060295867695914,-0.23539442012113332,0.01093936133971645,-0.32131270079396174,-0.3524378436295949,-0.7066222631393707,-0.2380400417534553,-0.4957014669408773,-0.8168232386061747,-0.5480365897348878,-0.5804972989210465,-0.4499426581423299,-0.5805812479621468,-0.5835990179821055,-0.5244168288920477,-0.3520977693763949,-0.35258505427650655,-0.06605352798332123,-0.12063046050246336,-0.17242911503399133,-0.2350339781471681,-0.3019835958462476,-0.2732422452337294,-0.2331879057014701,0
20.5,7.925,7.4,11.275,13.825,29.425,64.825,32.525,1303.0,480.0,491.0,662.0,770.0,1572.0,3505.0,2115.0,17.0,17.0,18.0,17.0,14.0,11.0,16.0,20.0,-0.6137437730149523,-0.5702240992750459,-0.5499553259960965,-0.38858558855487074,-0.27789765225575724,-0.1903332235719648,-0.030683153463928733,-0.3237849782318847,-0.42235110183358676,-0.2885796108587841,-0.3283574546019332,-0.5610253148214259,-0.4296060076509071,-0.6561171513990224,-0.4576009191536945,-0.6297802430886795,-0.6306862355710029,-0.7503609615788188,-0.6910502628078915,-0.5274526332702618,-0.491196474286275,-0.6428774623218914,-0.682445529984631,-0.47850924965484065,-0.2629936010444919,-0.08871672117752971,-0.322696402265752,-0.10815512402341922,-0.5841942640895658,-0.30730163405070565,-0.38047140525753914,-0.33111185858433867,0
19.075,9.1,5.025,7.1,13.3,27.6,78.95,36.975,1237.0,572.0,323.0,494.0,780.0,1336.0,4347.0,2293.0,21.0,15.0,17.0,21.0,16.0,11.0,18.0,15.0,-0.42247609330750424,-0.1265651410069288,-0.3059677591622536,-0.2771044912901807,-0.3290708403856251,-0.17520267281597662,-0.05286116889808816,-0.3002807957327824,-0.5397496081729823,-0.16389162690310707,0.14453171466472103,-0.08273711901298851,-0.645860835791648,-0.21241723994793582,-0.10774438483403609,-0.12578183387459763,-0.31805668621930083,-0.3823418791525615,-0.35216843464830233,-0.20551875952198764,-0.0591515187713316,-0.1408481685523469,-0.4025072875948043,-0.13073108398987446,-0.33394825051159266,-0.14289606298647023,-0.44560000346539197,-0.21920227276324405,-0.3622864547860706,-0.04767258052243766,-0.26761553929106024,-0.3311677866741347,0
23.525,12.7,7.225,7.525,12.4,31.825,71.925,31.9,1566.0,879.0,477.0,434.0,614.0,1524.0,3861.0,1818.0,18.0,20.0,20.0,17.0,12.0,14.0,19.0,15.0,-0.7732525454322301,-0.7055180384749287,-0.6996910841814611,-0.34636554827174826,-0.6187672897511334,-0.42956232685825035,-0.2845078844165998,-0.054901923447402995,-0.5598045839934513,-0.40914598591982937,-0.14713422554617994,-0.3445435393516862,-0.31261669214669924,-0.4995990527410847,-0.25973801529414225,-0.5308035005954873,0.12098180511011632,-0.5432528451048961,-0.16505366617395384,-0.23819835745735302,-0.1511323156543273,-0.5435054397487519,-0.34372476490516113,-0.4925644716291678,-0.31096175780613283,-0.2754587921769128,-0.32973770843604666,-0.22967227650743574,-0.2281308572031207,-0.3645658551979928,-0.30036758235409394,-0.4767095575679465,0
