0,1,2,3,4,5,6,7,8,9,10,11,12,13,14,15,16,17,18,19,20,21,22,23,24,25,26,27,28,29,30,31,32,33,34,35,36,37,38,39,40,41,42,43,44,45,46,47,48,49,50,51,52,53,54,55,Gesture
11.775,3.875,3.0,3.175,18.4,22.725,2.275,6.425,732.0,255.0,167.0,177.0,1149.0,1180.0,133.0,445.0,11.0,19.0,12.0,12.0,16.0,12.0,12.0,15.0,-0.21220654783283818,-0.16130905742340287,-0.19703279002649604,-0.3344114157033251,-0.27753490608204784,-0.3145855242156884,-0.028030816203010362,-0.3958013573470509,-0.27178880679891726,-0.32092251358849705,-0.09455809536067376,-0.4187021268178105,-0.2992663241215625,-0.292790220534568,-0.1331241239971935,-0.46383369579956096,-0.31107243551566255,-0.7248671235582105,-0.30305030678905126,-0.48183291419728896,-0.2221528114028967,-0.5310941779192518,-0.3566773407862526,-0.5180227049586708,-0.09669089952679795,0.13848548171475514,-0.44580504062251547,-0.19499236692343971,-0.4389298202558444,-0.2514155756095778,-0.09844023700372016,0.056933431333222026,1
9.65,3.45,2.775,3.35,23.25,25.2,2.275,7.35,532.0,217.0,145.0,183.0,1361.0,1455.0,137.0,445.0,17.0,17.0,14.0,14.0,18.0,16.0,17.0,14.0,-0.002195228392840754,-0.1621736508924428,-0.258143556651656,0.11195196842742178,-0.3843692396765271,-0.3861084208551402,-0.13155646495769555,-0.3743557789360557,-0.25481633005969834,-0.41134015151095893,-0.4548784054570487,-0.27232427343005544,-0.5208945223727658,-0.500387989821958,-0.6621297994453603,-0.4242389816549737,-0.4476986579765064,-0.713746192132455,-0.353476013139624,-0.4305987088977391,-0.46682286423044694,-0.5880679055953214,-0.559341431259922,-0.4880953067305645,-0.18433370558514117,0.11733414577654634,-0.19637834142449936,-0.07412597054136486,-0.1674998497897255,-0.04946236485946729,0.07943326781788826,0.14948598671159882,1
7.575,3.65,2.45,3.4,16.7,20.45,1.9,4.175,451.0,225.0,145.0,195.0,1141.0,1201.0,102.0,210.0,18.0,21.0,15.0,15.0,19.0,17.0,10.0,12.0,-0.2881093770531356,-0.5211157812959303,-0.2431704412344735,-0.4020727181851198,-0.7280316781984765,-0.521867782238248,-0.4188970393824725,-0.30062475921843246,-0.25581907622505234,-0.15332493713698656,-0.36763761543502554,-0.2523984252236766,-0.3079708542753965,-0.032489652433668165,-0.3726973937816692,-0.3104977628212494,-0.5699158901580279,-0.47803583587602416,-0.2940961369664757,-0.12198481422037746,-0.24726349333851433,-0.1758893689105342,-0.20988537327383422,-0.3509170004753303,-0.259703139055926,0.21993609848993004,-0.18674632330346425,-0.24895591470981843,0.14600656989115518,-0.09687969322126587,0.2583869362159512,0.038099594657116154,1
9.6,2.975,2.2,3.45,12.725,14.225,1.75,3.8,619.0,188.0,132.0,213.0,686.0,776.0,100.0,217.0,17.0,16.0,14.0,19.0,15.0,16.0,13.0,14.0,-0.14941554017357733,0.05104044668867885,-0.26573996364195435,-0.17763331303023985,-0.5574675828109384,-0.5156726062083404,-0.3042201420184155,-0.33082156375964966,-0.08210870786905934,-0.10169888800853155,0.018275719170141307,0.06443176987085392,-0.18580518596043843,-0.02122061957212689,0.05153637422279456,0.15681233968235783,-0.027081231988388813,-0.5711476301757131,-0.039467647420862007,-0.13531928610058366,0.2877021799111125,-0.35452703610575653,0.09731475442815304,0.012704182525706422,-0.11302420798479564,-0.20972764518759418,0.3145844177704483,-0.1484570789903319,-0.2521802783332557,-0.3111544375594445,-0.25244879664543607,-0.1871685091932189,1
12.525,4.325,2.725,3.35,14.65,17.3,2.375,6.775,845.0,277.0,169.0,215.0,923.0,1026.0,126.0,463.0,22.0,16.0,15.0,19.0,16.0,15.0,14.0,18.0,-0.23653726462119953,0.22094627532829753,-0.11482470210079344,-0.039487194015664855,-0.602959414322528,-0.5304915655785529,-0.3242905461893678,-0.4234029219147107,-0.3432493950505948,-0.13104470610315902,-0.2571636042904998,-0.2115226750779245,-0.43146229692753163,-0.08172708978217094,-0.12928353837116113,-0.1131895413817278,-0.42013688632583424,-0.2800125487845941,-0.31286559034322486,-0.23125095616981853,-0.39186796565001186,-0.25513761312807626,-0.4017998089896151,-0.2398062696857657,0.03463320498803417,-0.25450870023507144,-0.007407980278883343,-0.2242315731522606,-0.5294300322629748,-0.373508845500519,-0.1062558171482397,-0.180419882025469,1
13.575,4.075,2.6,2.925,18.025,20.2,2.75,6.6,984.0,251.0,140.0,171.0,1253.0,1315.0,159.0,392.0,22.0,18.0,11.0,14.0,20.0,19.0,11.0,15.0,-0.7824293663855956,-0.49429376503660655,-0.1534795285453656,-0.11092602101566537,-0.6187242828408784,-0.5733568766535926,-0.26062285203864977,-0.24577874770543764,-0.12517835046908932,-0.37225496971888516,-0.2762645058975384,-0.37127427287924136,-0.5670630940849579,-0.7344129915116848,-0.5170975815641755,-0.48619510724381887,-0.541927100076149,-0.25602712888577855,-0.17923003836463264,-0.1488793113790824,-0.44639180662467365,-0.17498112026544432,-0.1052291828643063,-0.3218880415281843,-0.17420195952859682,-0.03075987940961883,-0.024490875666709905,-0.06969407132052798,-0.46386185392198803,-0.38399513154996856,-0.35053149903261194,-0.27754871883489207,1
13.575,3.425,2.5,2.7,12.9,19.725,2.875,7.125,930.0,209.0,143.0,156.0,752.0,1021.0,155.0,450.0,21.0,13.0,13.0,13.0,14.0,13.0,10.0,17.0,-0.5557259608004297,-0.26027763919330676,-0.09684488572470362,-0.11632330350322083,-0.23036820034902764,-0.3471111286027912,0.07015167733695167,-0.259383848970262,-0.2944791503636134,-0.27020884336426426,-0.3203070842987204,-0.41127345048115677,-0.3409364748869241,-0.11581650220195777,-0.18621423517094277,-0.19567174581969313,-0.369121731026713,-0.47567719622608995,-0.3737576245679786,-0.25094143106923505,-0.18302320527837965,-0.40584317993411506,-0.388597012630703,-0.1517323245293145,-0.09893392930688517,-0.21149521860486928,0.027042056227204802,-0.18749365740064325,-0.25972061314165873,-0.23615029019822936,-0.034334254544789805,-0.07099461432400168,1
11.575,3.775,2.45,2.7,16.75,21.3,2.125,7.375,692.0,243.0,142.0,148.0,1214.0,1429.0,136.0,475.0,12.0,17.0,13.0,11.0,22.0,20.0,18.0,15.0,-0.3123532963477769,-0.2229591005824839,-0.11235726061871364,-0.20740147728573835,-0.4392521781604847,-0.4152424128338486,-0.2485180799640914,-0.5064132214164971,-0.42404462824701694,-0.44597408673323985,-0.20868454386442517,-0.30056773485690624,-0.16262499398975142,0.03406590788776767,-0.11861570618163238,0.015912626256969205,-0.8203662875533047,-0.5133978303371253,-0.20068969390295568,-0.27578960075145476,-0.6268077460442885,-0.6143707832900327,-0.16478584038141825,-0.3259309062883884,-0.38703086565660405,-0.06325495854198726,-0.24994524394586032,-0.32371653719156096,-0.3029409900591544,-0.2909720355705776,-0.04904805272804874,-0.2859566355142015,1
11.375,4.85,2.625,2.675,18.725,20.35,2.275,7.125,635.0,324.0,151.0,159.0,1332.0,1279.0,149.0,406.0,15.0,15.0,11.0,15.0,22.0,14.0,12.0,10.0,0.07052015649240387,-0.03954362438243561,-0.19009268906781715,0.06018201141913138,-0.6065538969082109,-0.43720299784672595,-0.3347100844028923,-0.3508313375162849,-0.18057479281882205,-0.22179853258492155,0.021096933999310816,-0.32494934291826033,-0.44435824300051613,-0.1938719081981341,-0.31191095581594036,-0.28415338373335314,-0.7399635062972868,-0.3391736233044537,-0.15945818545252785,-0.17383834955729288,-0.40142686626617474,-0.2895966392008043,-0.13864254374072643,-0.2662788855789454,-0.5371306252005333,-0.1665271971321392,-0.14942782215044406,-0.2765042294015816,-0.20964307017421382,-0.08472324773499589,0.009377887808354787,-0.08603439526317587,1
13.525,5.2,2.725,3.375,18.3,20.125,2.225,7.525,824.0,319.0,142.0,194.0,1205.0,1250.0,125.0,480.0,18.0,14.0,13.0,15.0,17.0,19.0,14.0,18.0,-0.043572344360319225,0.12475137901215586,-0.35029213298672757,0.13597969967465678,-0.7206701330778872,-0.6961177569690546,-0.5352691228682341,-0.43351588530310936,-0.21245825144888417,-0.38824818528735056,-0.34759855105227044,-0.34399635190477035,-0.5475630047066321,-0.5622777098113403,-0.4363912415610979,-0.527548791045241,-1.0296105058461735,-0.8991721410709442,-0.7313753309296716,-0.43320421730994535,-0.5623002735924394,-0.41192244245308496,-0.3833601600035092,-0.29096111123155594,-0.2371530797320823,0.0621856413474566,-0.20318072783708144,-0.17268391875406905,-0.258491074954091,0.05525908983772935,-0.27274664200962645,-0.22886918500820813,1
13.05,5.925,2.6,3.275,16.95,20.25,2.1,8.275,894.0,377.0,137.0,197.0,1129.0,1257.0,125.0,534.0,18.0,19.0,15.0,17.0,19.0,17.0,16.0,15.0,-0.5455214860563261,-0.2343702371348701,-0.20856494940020903,-0.10774516089580811,-0.6575678646439044,-0.43088765513208943,-0.5445551329247962,-0.3913725013108006,-0.28397526057906436,-0.3092783079925478,-0.31329114309158157,-0.532152493469275,-0.33520808967923593,-0.2889671154928928,-0.34685820276837886,-0.35516039578798525,-0.9629894254957777,-0.9393469721133577,-0.700386984112518,-0.5226522421727049,-0.5606320993502582,-0.5033329686488077,-0.48530269235288126,-0.4995217029124077,-0.2369687349308957,0.1029620101168386,-0.1014690199567816,-0.132001022418563,-0.46761635881913616,-0.35223183411315395,-0.48478259171690413,-0.36943544015201646,1
15.65,3.95,2.525,2.925,14.25,15.375,1.875,8.125,1039.0,268.0,128.0,178.0,871.0,934.0,112.0,532.0,20.0,15.0,11.0,15.0,18.0,17.0,13.0,18.0,-0.4668569575652684,-0.3491054409434279,-0.28560787250652087,-0.26638480212596205,-0.5913765765252521,-0.4701718022790413,-0.19170639338353768,-0.07003567984783231,0.01081499462522061,-0.04547902568010909,-0.09646378456391791,-0.12139743353296455,-0.2357383711349653,-0.1574359948774317,-0.3076798576111528,-0.14008022964066913,-0.6536232928954918,-0.4653940148616352,-0.5489419153272016,-0.34524117785954755,-0.2156650570055092,-0.2790635524365685,-0.45889556245350804,-0.17746839946146456,-0.1827331143921298,-0.08759768509468048,-0.207719160358759,-0.19780891904277917,-0.3806010022773911,-0.22137302010508383,0.09078709858625443,-0.15456565319622023,1
13.3,3.875,2.575,3.275,16.775,21.825,1.85,6.5,936.0,249.0,155.0,201.0,1059.0,1248.0,122.0,370.0,19.0,14.0,12.0,16.0,19.0,16.0,13.0,15.0,-0.6817955439308577,-0.5247196522127984,-0.37045492517657386,-0.25960424585879627,-0.7112808054928429,-0.5016889596594594,-0.23472031546770092,-0.13231639646534812,-0.35025855769792064,-0.32880362368023164,-0.2994869813951659,-0.30348906770568124,-0.3395813140521232,-0.4858544945481748,-0.28546383783434476,-0.21502603562182246,-0.5989772960074778,-0.5977033688807514,-0.5060103734925544,-0.35884485127024923,-0.4211133759803364,-0.48980563876632544,-0.5003691559436572,-0.2601989934328421,-0.3940851573864709,-0.09189695049648311,-0.04620789642658217,0.04376740754280867,-0.15536463078939658,-0.12665889112015824,-0.08507128646156592,0.04461747154939611,1
11.0,3.825,2.125,3.125,14.425,17.2,1.8,6.9,734.0,215.0,143.0,171.0,997.0,1140.0,102.0,411.0,13.0,17.0,13.0,17.0,20.0,17.0,16.0,16.0,-0.09292044125083967,-0.4871053013395341,-0.0497409182394229,-0.3202830085778526,-0.3992914262863333,-0.49002712743521226,-0.3460448705351728,-0.3534001702993521,-0.49333249877220314,-0.32036774085642944,-0.04432426960313725,-0.18436052629669267,-0.3552712782936137,-0.48142567317724505,-0.29974854935915396,-0.3609249729561343,-0.635426747569638,-0.5510695505121034,-0.26950678695140884,-0.25420729460936536,-0.6299052500288065,-0.3889686149329767,-0.1254558892415643,0.05283974991655265,-0.3902296362240654,0.059023457755375666,0.03767829111085067,0.03490997828361271,-0.3273317983746998,-0.475683299293182,-0.2300529767101377,-0.29615738552268817,1
12.3,4.3,1.875,2.8,16.775,19.175,2.175,7.0,692.0,284.0,119.0,173.0,1234.0,1306.0,123.0,421.0,14.0,18.0,15.0,15.0,20.0,21.0,16.0,12.0,-0.17274965465531322,-0.32182460924870915,-0.0403880690622191,-0.06903041816864657,-0.6691549603209896,-0.633990888553894,-0.4534389517673885,-0.36797013504626347,-0.38041562347354796,-0.3835329312415905,-0.0034098531170699184,-0.3078349758560008,-0.30426438777044534,-0.27161112305582924,-0.07485611402770347,-0.3625386774822084,-1.2169106832827135,-1.4015616967799878,-0.9142054098332537,-0.5937502143965847,-0.715169339370973,-0.7424743032618274,-0.4037159226672198,-0.43406996780452894,-0.40051748086358735,-0.0848578429253813,-0.37442972290252124,-0.39402932254705875,0.017202336097141068,-0.09405113767756108,-0.016880287022518925,-0.40804060434964873,1
11.975,4.175,1.8,2.35,16.125,20.475,1.875,6.125,731.0,269.0,114.0,160.0,1128.0,1273.0,105.0,373.0,16.0,17.0,12.0,18.0,21.0,18.0,14.0,16.0,-0.267564625207217,-0.17029517476446857,-0.20831551130773532,0.03930092336242318,-0.636872207355946,-0.5196338523080453,-0.5395659697530056,-0.2598405674382938,-0.4803994498373224,-0.1557891641318091,-0.2421492616367047,-0.22434874187987178,-0.29578584599999597,-0.2712775035178269,0.10774292385547386,-0.2792966113887905,-0.7345989301655107,-0.5538247235399566,-0.2906189479379992,-0.26430438272170015,-0.3569609426062872,-0.45274442970954554,-0.2208878409107408,-0.38867284505583843,-0.15642600709850757,0.007674366766728905,-0.3295866629223544,-0.2707626137800518,-0.18751538900503012,4.0334984381834086e-05,-0.1270005309707386,-0.2595315400791776,1
10.9,4.2,1.7,1.925,12.85,16.625,1.55,7.8,644.0,273.0,102.0,113.0,903.0,1048.0,88.0,528.0,15.0,16.0,14.0,16.0,22.0,20.0,12.0,19.0,-0.2728590280404341,-0.1107108671281028,-0.18149219131653868,-0.1904995545180412,-0.6639499750648628,-0.45453924360580583,-0.564943863361253,-0.2833974665506583,-0.3386837904800985,-0.2842702531495672,-0.20740394336522294,-0.505915116010351,-0.18220235014024866,-0.2999164900176612,-0.2438259221237209,-0.2671882414358877,-0.5369313914671163,-0.05636463952664347,-0.2890028103803379,-0.41094172840785625,-0.35958942839293123,-0.10293845110011944,-0.3333722622354839,-0.4704913923600475,-0.06804779076348845,-0.12444176819017619,-0.09385509529580835,-0.18767429189742083,-0.4935834209719122,0.12095707530276024,-0.2756816539152427,-0.3780210862843169,1
10.7,3.625,2.025,2.5,11.2,16.525,1.925,6.85,634.0,202.0,98.0,123.0,639.0,1053.0,98.0,443.0,17.0,11.0,10.0,14.0,11.0,14.0,12.0,15.0,-0.2674125737285434,-0.5000838328695578,-0.23884667353392547,-0.3019215137401015,-0.46307779546024913,-0.6872725687721893,-0.48141254562955554,-0.4201817200299315,-0.04230155857505339,-0.3690795450901101,-0.26021818684216563,-0.3291717378934398,0.010350273718692047,-0.390219333291847,-0.18141647769167676,-0.23800925515137641,-0.0033453646380317502,-0.24528785473590936,-0.2906491406379988,-0.17714437829738802,-0.3055131498122987,-0.23945555129084733,-0.4492963531802687,-0.3810647523027097,0.0471677881583571,-0.14808913963761902,0.053129872571352876,-0.22873948289172846,-0.37446348332894513,-0.10273970720909294,-0.433114161660264,-0.3563925641336464,1
8.425,4.1,2.05,2.65,14.275,16.05,1.975,5.6,498.0,274.0,116.0,155.0,999.0,1047.0,106.0,336.0,18.0,18.0,12.0,14.0,18.0,19.0,12.0,16.0,-0.18341856158049608,-0.03708652090319555,-0.38539252154230214,-0.2046396962562344,-0.6351197238009819,-0.2796670371851024,-0.5815034411591022,-0.5340168334456706,-0.26178579439822164,-0.13878628673909205,-0.07105712820637676,-0.04083329648848845,-0.443904377445338,-0.3229270256782424,-0.28282826296081914,-0.10697228185846291,-0.47480686996758115,-0.3361223199690421,-0.28172129497517306,-0.24303299073059828,-0.3352348287637461,-0.333561535064196,-0.28522061081702826,-0.14336813514756333,-0.36363581681113893,-0.12018125386798577,-0.06403313976853942,-0.07300363850802268,-0.4125892797126563,-0.3482074236019745,-0.17763498576623205,0.10483496377193591,1
12.15,3.4,2.425,2.9,16.6,15.375,2.05,6.4,755.0,234.0,132.0,150.0,1199.0,1015.0,106.0,386.0,19.0,17.0,12.0,14.0,21.0,20.0,11.0,15.0,-0.2484162480979631,-0.23539383154762383,-0.20416004786021208,-0.29641673094732146,-0.47340777521820904,-0.3923832478773005,-0.12850270828016155,-0.21026414660330456,0.01545832022423358,-0.4058768106257952,-0.022426060784700188,-0.5158456910089597,-0.35958836344147155,-0.24051997213066814,-0.517782888940255,-0.3122679619847534,-0.656256018722282,-0.5621697856406526,-0.1480315941242516,-0.19933915136399175,-0.5208139828154408,-0.4711191250722048,-0.33451451429163986,-0.2956669528776942,-0.11268411937722692,0.08158162275263789,-0.13668009269201603,0.05946840641148866,-0.2088157026439836,-0.20120296997364198,-0.08297241121952752,-0.3441266497125784,1
13.1,3.95,1.95,2.35,17.275,14.375,1.6,8.625,789.0,258.0,110.0,121.0,1113.0,1019.0,83.0,564.0,16.0,17.0,13.0,13.0,22.0,20.0,9.0,15.0,-0.19370526838189922,-0.21334654609355733,0.011550196790348015,-0.15775611445016566,-0.43034664649807314,-0.23515780487324486,-0.12241115065325607,-0.24656625334859844,-0.345165142089298,-0.5583060992119724,-0.23944809430443262,-0.4307760963765527,-0.14335437206950982,-0.255137719048179,-0.23990437983262453,-0.28591830529571727,-0.6288552967412108,-0.47482953721200805,-0.28881248248754166,-0.0647418604211379,-0.4864205737024978,-0.3954663852168649,-0.1331925883857039,-0.18583965279388867,-0.1518294514266642,-0.23827344912520024,-0.31416888650554664,0.05244296817616461,-0.4984119151100348,-0.12520138914247197,-0.12529572915641116,-0.30947734676292293,1
12.25,2.325,2.0,2.95,18.35,17.775,1.65,6.1,749.0,130.0,116.0,179.0,1295.0,1215.0,88.0,395.0,17.0,12.0,15.0,13.0,21.0,17.0,14.0,14.0,-0.6697848350567462,-0.654461073616176,-0.5404799964312674,-0.2888014869591461,-0.33763618807391577,-0.3097312160827315,-0.21635758473557315,-0.11877256424410984,-0.351678295701283,-0.1714733507824239,-0.28893875172600314,-0.34648173450343456,-0.5976000281072545,-0.5229745315208347,-0.5692341371563615,-0.33157381050887474,-0.6491342803046517,-0.47439341093851917,-0.3421839279770545,-0.3976269221383367,-0.5374196410400371,-0.6258012700589864,-0.5057634937237943,-0.3891945983126832,-0.11790247069591844,0.014660598753004107,-0.24700330826930855,0.03958509029107346,-0.5530396978975956,-0.40001310539270063,-0.20277088777897187,-0.1410442788475481,1
13.125,2.525,2.125,2.65,17.15,18.3,2.2,6.575,844.0,148.0,119.0,164.0,1194.0,1108.0,141.0,423.0,18.0,12.0,12.0,16.0,19.0,16.0,16.0,16.0,-0.5576979779128154,-0.48213272500599696,-0.4163469642929323,-0.39897622353744283,-0.14730865990225395,-0.5440970907620605,-0.15020941982323074,-0.4072882246861724,-0.5226332065470315,-0.5237705054467057,-0.050515576304920956,-0.14009354275779706,-0.6311012691418142,-0.814150365987348,-0.3143308287735382,-0.27881212622470886,-0.8653696496955859,-0.5747514689784656,-0.5604036594712625,-0.20185878463265325,-0.5661922870610494,-0.4372880546995773,-0.6036736284863433,-0.2836564081796655,-0.3466502272676987,0.12558443455358756,-0.20272252945958677,-0.19604296313860237,-0.4095829627564033,-0.22403893589758647,-0.1813793002634337,-0.3047600135131765,1
11.475,2.775,2.325,3.1,15.575,24.675,1.875,7.55,697.0,157.0,135.0,171.0,947.0,1531.0,127.0,453.0,17.0,11.0,14.0,14.0,17.0,18.0,17.0,15.0,-0.2587259861209571,-0.055448971987859655,-0.08892792772861297,-0.12117692773382475,-0.2036116847763056,-0.14565484172991167,-0.24059001218406095,-0.074661045589198,-0.22378689079678876,-0.3057736358923164,-0.11760714007930358,0.004051919601130855,-0.4345187499088271,-0.5466881986340998,-0.42808031751370756,-0.15413099947351902,-0.45339764676915345,-0.4114284850147901,-0.2562823971685522,-0.19623984593512384,-0.34781665101177606,-0.297767091271274,-0.3591841726427002,-0.1750364125359828,-0.28540726514427317,-0.04208283315433711,-0.06262422644595914,-0.11348611017478968,-0.18788282959014854,-0.16708834273582712,-0.043022827743779454,-0.11794409621844125,1
12.925,3.575,2.8,3.7,17.275,18.35,2.35,8.1,809.0,178.0,165.0,216.0,1160.0,991.0,146.0,484.0,15.0,12.0,15.0,15.0,19.0,15.0,16.0,14.0,-0.1058265374648482,-0.30613518531091466,0.12707890588392828,-0.1676119551300432,-0.1985506807214021,-0.26676313113465966,-0.4712639190382338,-0.3032961430065653,-0.4274968336467979,-0.24116570208104657,-0.6491686230375575,-0.20701798743178607,-0.6020002116501988,-0.42662117826674556,-0.7944675698229701,-0.27129585729647343,-0.56651778638559,-0.41474506975597863,-0.2560893275932832,-0.19449519912202745,-0.3625594943686734,-0.345293002143932,-0.5501111682565649,-0.21226700354644346,-0.3837343640986721,-0.31853408300347336,-0.3385399876096318,-0.1760928054219256,-0.355378650171644,-0.36666081805389444,-0.457705738245388,-0.3623462128629284,1
10.675,3.175,3.0,4.25,18.025,23.65,2.8,7.625,656.0,134.0,177.0,258.0,1197.0,1335.0,163.0,471.0,16.0,11.0,13.0,15.0,17.0,15.0,12.0,20.0,-0.3020044389802092,-0.35683189721409514,-0.3022734067069505,-0.15077338006379737,0.14529429224735527,-0.13913183681403257,-0.21440551563277524,-0.1863389789419546,-0.5110089015047259,-0.47630397729368606,-0.6619658011914752,-0.3717041865580142,-0.5895346609569867,-0.847098834595674,-0.6482732642286972,-0.5577915309205664,-0.641431186115387,-0.48644535317190235,-0.53971736008743,-0.20152175607898984,-0.3776265706246285,-0.394658744832242,-0.6147624257500386,-0.18223198326468348,-0.2606657186237316,-0.0736284893577383,-0.3923570129300035,-0.2181269783745355,-0.3810017918159551,-0.14892648809700157,0.11685640622594,-0.11415566435553194,1
12.125,2.725,2.825,4.025,22.5,25.55,2.125,7.7,819.0,165.0,157.0,216.0,1449.0,1496.0,130.0,460.0,18.0,19.0,13.0,15.0,15.0,15.0,13.0,15.0,-0.3528360903826587,-0.23692374282850515,-0.06120797477137639,-0.408957982501837,-0.17533290285440484,-0.4820295661902203,-0.06453403512989968,-0.26738404251964837,-0.4426940903890592,-0.47690115902926083,-0.5644786130931062,-0.49825833577214906,-0.3083533294168255,-0.5709285527413953,-0.40816003268377116,-0.3419015133196782,-0.6690137146555664,-0.5703921849601808,-0.6012322784631516,-0.5122224808431177,-0.3654329640268208,-0.4181738294981032,-0.4798513012625757,-0.3072732366786382,-0.005366789208495033,-0.15081837657592465,-0.13380598258675996,-0.08703003923785566,-0.1701893697083627,0.011533243257033405,-0.005772141842694119,-0.33891949490972384,1
11.875,2.875,3.175,4.1,25.225,28.275,2.2,8.75,849.0,188.0,181.0,225.0,1668.0,1740.0,127.0,574.0,21.0,14.0,17.0,13.0,15.0,19.0,11.0,19.0,-0.47874115562635916,-0.03037750766713249,0.03344727309010017,-0.18736418149079667,-0.2697983461479598,-0.07898507089249356,-0.29554640733904725,-0.34573752260499324,-0.2980450599877849,-0.300644048821009,-0.410713748174456,-0.2617823649319066,-0.4723849675351567,-0.6474646411106848,-0.585295452189933,-0.3071281332990951,-0.7008728058470457,-0.5421568623870113,-0.6476952788902134,-0.4153648225610919,-0.6173146554061283,-0.508771793577887,-0.7040826535588963,-0.4883897035683104,-0.11709881597891544,-0.11415139140717183,-0.2282096762445916,-0.06241076621002479,-0.24839483706908308,0.15247580786274328,-0.0689481243132515,-0.5818329527279326,1
10.2,2.275,2.1,2.525,20.425,18.7,1.775,6.3,697.0,139.0,112.0,153.0,1301.0,1195.0,111.0,351.0,20.0,12.0,12.0,14.0,22.0,18.0,9.0,12.0,-0.7294581097684896,-0.37309150103398997,-0.13331099541025626,0.006852251241722085,-0.31439433629211155,-0.21152037596321008,0.018004348518338827,-0.20759950395573143,-0.1502321857329857,-0.2946363080892108,-0.24992172777266639,-0.061613910134841944,-0.4596312532058858,-0.5176694303783581,-0.4945813279927247,-0.10609592903142545,-0.5062068017419712,-0.6140992535933316,-0.2734563109847974,-0.27873775816874796,-0.4807213369987681,-0.5388903743995426,-0.3679091930141259,-0.21568090667279105,-0.19020145145115097,-0.1402173322706762,0.030920967481916847,-0.3156511981150563,-0.3401367885387093,0.013513975484570043,-0.2934657809163427,-0.33820689844186513,1
11.225,2.475,2.45,3.95,15.9,20.5,2.075,6.125,711.0,143.0,127.0,211.0,965.0,1140.0,134.0,362.0,19.0,12.0,11.0,15.0,15.0,15.0,16.0,15.0,-0.3022337793434385,-0.25777817782521834,-0.1433855397136066,-0.04611303305894544,-0.1763664163690365,-0.2827144453492998,-0.0777308261403679,0.17522436715298692,-0.15106498831517523,-0.23040764078318832,-0.17231420499084454,-0.2759778727948297,-0.3853276668995552,-0.350279579966502,-0.44463683432135154,-0.18995861205587372,-0.13320484113076242,-0.2147844242092762,0.0026825750852925087,-0.44066994705952356,-0.12259619548287477,-0.36122917428229384,-0.14408699502198447,-0.3691213350062259,-0.19026930227914074,-0.4188637600590484,0.06707718161078528,-0.3277648110952909,-0.2737969739265036,-0.22880381459289809,-0.04167590484931473,-0.25772244366795694,1
14.325,2.625,1.8,2.85,11.75,19.525,2.6,6.4,846.0,141.0,98.0,163.0,696.0,1183.0,149.0,395.0,15.0,15.0,9.0,13.0,12.0,16.0,16.0,19.0,-0.2399103747199524,-0.281297441981678,-0.09463683410302726,-0.32666801273665574,-0.05489399434746594,-0.47547343746664483,-0.15803297442001854,-0.3368531903619805,0.08420021419050522,-0.11290270914325626,-0.07978151380174639,-0.19104934160701756,-0.06733799843943315,-0.21089263548781506,0.12717003257338383,-0.2127216094777044,-0.2645351009858513,-0.46652895410641754,-0.10465062392901921,0.055739893267959785,-0.30851001447174775,-0.5567883562309148,-0.23032634430024312,-0.2945150845795502,-0.1966127663078418,0.027933561544206682,-0.11666259739944555,-0.17986556462483227,-0.4823321701166166,-0.25917614374487896,-0.23093520826201144,-0.09364109768092437,1
12.675,2.85,2.125,2.4,13.4,19.225,2.575,7.125,783.0,175.0,130.0,144.0,860.0,1216.0,153.0,438.0,19.0,12.0,16.0,15.0,19.0,17.0,18.0,13.0,-0.4980054406244166,-0.2713900390712685,-0.20379489712652835,-0.2381255159640817,-0.1253649838376344,-0.3375777036482407,0.022791549432136547,-0.20394870216035044,-0.42885459909886814,-0.15672159205798072,0.19754550140733773,0.009410547605582823,-0.6049335151273246,-0.5803013169644323,-0.3956494332811722,-0.34586397232919425,-0.5813455881180423,-0.6204298415898898,-0.36723190421604035,-0.1075136248005578,-0.4603850582759078,-0.6194973804556073,-0.35632331221087377,-0.20774713238455625,-0.19798268054115895,0.02336430632140818,-0.16015962230053768,-0.35814121498802287,-0.37143877325941127,-0.14514177761887395,-0.17083487467874797,-0.25065700531072105,1
11.4,2.45,2.7,2.9,13.65,18.775,2.325,6.425,778.0,160.0,156.0,170.0,974.0,1168.0,144.0,402.0,17.0,12.0,10.0,13.0,24.0,18.0,12.0,16.0,-0.5034038437259497,-0.005121289602693754,-0.28738104893560645,-0.4041237790691376,-0.3809534653931741,-0.2512376310831495,-0.20398826212158416,-0.06373866185233391,-0.36821686499989986,-0.2895801371406403,-0.5120169605979007,-0.33767545017464656,-0.5963905468794921,-0.4891615635989438,-0.5538204728718039,-0.45838498947733236,-0.7492548137013667,-0.2619432343347479,-0.2026353356560139,-0.25721759644973596,-0.7195367487021889,-0.46910844553542974,-0.4753467990633783,-0.2976266709861937,-0.25745952944381356,0.011367510109728347,0.1332001621183103,-0.2763639430812066,-0.41800048245104904,-0.273595223710546,-0.259115524196634,-0.3411214690018208,1
11.325,3.15,2.425,3.15,14.15,20.4,2.1,5.7,627.0,174.0,131.0,193.0,904.0,1283.0,128.0,381.0,14.0,13.0,11.0,17.0,13.0,15.0,17.0,17.0,-0.4925358717503853,-0.5344058371876019,-0.3158761086090201,-0.3059061758749342,-0.31342559846721246,-0.305277750448546,-0.4581087304089241,-0.5024822480223583,-0.13549348186133636,-0.23373971464666543,-0.21835840658217506,-0.1711143040787835,-0.30675739329922475,-0.17153441322988508,0.009668420371478841,-0.1975553054176589,-0.5293004365184836,-0.5214171868919387,-0.1905126091144289,-0.16512105901033652,-0.49695685301464654,-0.3700621260248298,-0.17125836300209565,-0.20070817930515075,-0.3094128656608563,0.023771865429323562,0.31714264941257025,-0.08873192680267027,-0.4452621557771093,-0.45839635584122845,-0.2714707578205005,-0.3006874928007813,1
9.925,3.075,2.425,2.825,13.675,18.75,2.225,6.15,648.0,172.0,147.0,189.0,985.0,1157.0,149.0,403.0,17.0,13.0,15.0,15.0,20.0,15.0,17.0,19.0,-0.3962417489906332,-0.20491332437256207,-0.055041186147961704,-0.193692334048609,-0.2725770358228739,-0.03180921813170532,-0.25694498144275046,-0.24999756650296798,-0.35374397031574467,-0.3070193968104344,-0.27208049107600946,-0.18147527454470475,-0.43311185742200986,-0.1882513813561087,-0.01986536638668591,-0.19919599000293292,-0.6702900052942149,-0.4679152221695749,-0.2220277764472268,-0.20719650229408573,-0.4358878577477164,-0.5060625679244324,-0.23513484564210851,-0.2604798134518666,-0.5860533804524988,-0.2994321133566856,0.1582850973899206,-0.0971943557018512,-0.6634599635425582,-0.590481016000572,-0.21763275601630508,-0.22813141304761886,1
11.875,3.05,1.975,2.275,10.025,13.3,2.425,7.35,727.0,191.0,105.0,124.0,682.0,818.0,157.0,442.0,14.0,16.0,12.0,13.0,17.0,20.0,19.0,16.0,-0.5425241384095394,-0.39951751737457736,-0.4706635525259248,-0.18485375539347523,-0.5919808385491903,-0.6168457077126972,-0.26587393553186395,-0.25484133720386765,-0.22122109196527415,-0.8217111685639855,-0.18868568565218025,-0.3854986439271938,-0.2076332765676528,-0.3469549978646258,-0.3500605457911816,-0.1939893301638387,-0.36032588897654305,-0.3434997519854064,0.05616077536997658,-0.24942837514701519,-0.24189883849109142,-0.1910320830749307,-0.19145227607002505,-0.07416334755076391,-0.4294189960915404,-0.3815637559018869,0.0634868048237925,-0.15335873105310693,-0.39559158356563756,-0.24088967639990863,0.012092639604603357,0.03157690456302024,1
13.375,2.975,2.2,2.475,12.05,16.525,2.325,7.2,794.0,162.0,110.0,137.0,795.0,941.0,137.0,463.0,15.0,10.0,11.0,16.0,18.0,17.0,16.0,19.0,-0.32665817288712967,-0.2202283467112918,-0.12255196774786006,-0.25481799883534767,-0.05939656572332541,-0.2676741687865033,-0.07485748441647878,-0.3278784809644939,0.0021849970701231457,-0.2457354995620201,-0.28469497738264854,0.002272970592326934,-0.20269557608272384,-0.29345649583634614,-0.252203253289127,-0.1384855116799337,-0.26071242003283357,-0.21388798325117758,-0.27146874846595986,-0.3505202388617679,-0.1775289667562392,-0.33244727958847486,-0.3680097205123043,-0.42628953958443566,-0.6558458479871984,-0.39048478212453647,-0.011880650049584518,-0.012327030838207659,-0.44429138887081365,-0.324703549216272,-0.16984595458191196,-0.21931077892680267,1
11.475,1.925,2.275,2.2,10.725,19.175,2.025,7.45,752.0,86.0,130.0,118.0,651.0,1175.0,133.0,487.0,17.0,8.0,12.0,10.0,14.0,13.0,14.0,19.0,-0.3697255818471044,-0.3930724774229659,-0.26562631451272983,-0.30846471034639517,0.2235069578665143,-0.33347096061902826,-0.10830421274693293,-0.3422344727456275,-0.11428824008525425,0.19509011963066014,-0.3124962724573805,-0.3306682021615683,-0.006563664539827324,-0.10520043615920434,-0.42531102456685044,-0.13369235909759516,-0.3971859441609776,-0.3964290680755093,-0.2837509123365363,-0.21145547680182358,-0.335245132221241,-0.5253952625684004,-0.34108129824669153,-0.4261598309808014,-0.27707817528251333,-0.1713385285979712,0.18359435565512905,-0.02216855635391871,-0.5258890473662875,-0.18783249399929847,0.04610465426663658,0.1622957431040227,1
12.625,3.375,1.825,2.7,13.65,15.25,1.8,5.2,719.0,199.0,115.0,153.0,881.0,944.0,102.0,345.0,14.0,14.0,7.0,18.0,18.0,19.0,11.0,20.0,-0.1825815440555468,-0.40005111522572395,-0.18939636026023352,-0.5044064003611779,-0.16678149473388437,-0.46145078526216055,-0.1669911608651574,-0.5260420569838302,-0.47501470823668757,-0.12747991415917173,-0.2783499006116634,-0.4728907520872747,-0.1774956472596301,-0.0824516629197055,-0.20304641806431775,-0.06976147618115562,-0.762328480149955,-0.6469067293929639,-0.26592725154028174,-0.09663406528924409,-0.2348447513354097,-0.2589737837512444,0.005453358447004973,-0.25342294650541347,-0.11548633198277745,0.16147720700968993,0.11932359842081774,0.026496176881688403,-0.31512882046160284,-0.19995991484328196,-0.01002674480196647,-0.014845573330105312,1
11.725,4.05,2.075,2.375,9.525,12.7,2.35,4.95,608.0,250.0,108.0,127.0,519.0,751.0,132.0,256.0,14.0,16.0,14.0,13.0,15.0,15.0,11.0,11.0,0.13914633570718407,-0.3012677543346883,-0.21648246692713335,-0.04025479886325528,-0.5134551608756525,-0.39729456667015206,-0.3818322094597508,-0.38306135857219975,-0.1696429864583102,-0.0804211677641175,-0.12128245796297273,-0.23782712560857117,-0.03474035785871906,-0.17579340652358746,-0.18666767780434643,-0.09533536114566452,-0.21277601027707838,-0.4255175943871199,-0.3241845441374784,-0.06881458227116725,-0.36630231140905406,-0.44059116751843386,-0.5277889708061436,-0.17070323387538056,-0.2947371557126141,0.09095142478766013,-0.2963540604304787,-0.40032833525577266,-0.010250252108772787,-0.2486801561111087,-0.28320396230723915,-0.24154003864023096,1
11.225,4.875,2.4,3.325,14.95,15.025,2.55,6.65,643.0,304.0,139.0,196.0,987.0,806.0,140.0,430.0,13.0,16.0,15.0,15.0,18.0,13.0,15.0,17.0,-0.09193694253461959,0.06243086956307723,-0.1484237866900792,-0.030415159058228246,-0.6082192067185053,-0.4418035842543848,-0.2989741519176997,-0.263887236553433,-0.1651425580638892,-0.3875643147879672,-0.10418507948758882,-0.24158511495453602,-0.1736145479292949,-0.5324306177729156,-0.21013717499495618,-0.43964648142839774,-0.5920378094714257,-0.7814148535576463,-0.3037662574226477,-0.5128864304700469,-0.20238315874020948,-0.4730113162079135,-0.32358159105444995,-0.46320255763148016,-0.13833736556033518,-0.31720597413028956,-0.2575258870902696,0.020851459012282404,-0.48346218629224347,-0.3149561454922573,-0.5178146080981645,-0.42549004053489625,1
14.6,4.525,2.55,2.625,16.475,19.675,2.8,6.35,925.0,282.0,152.0,160.0,1063.0,1264.0,151.0,371.0,17.0,14.0,15.0,11.0,19.0,21.0,16.0,12.0,-0.20847178065788316,0.23612119357518457,-0.040337486960275476,-0.30958443851576506,-0.5901253430312923,-0.2510269889849803,-0.14181968993417252,-0.1535758445600593,-0.34548307351533797,-0.13134617732207546,-0.18160132894107003,-0.2391300135503041,-0.3846607051287215,-0.3230460781174643,-0.35999830412696215,-0.31390544026923467,-0.6763423890648537,-0.5923203294593103,-0.4266845982088492,-0.38432665877127326,-0.39659389690738833,-0.3268898351791232,-0.20841701978808325,-0.44947936737344013,0.012696796983314768,0.12796215343324435,-0.05992935457406881,-0.012081337289351889,-0.5407284539882735,-0.3532699989991859,-0.4974001534830296,-0.5744736555509175,1
14.125,4.325,2.5,3.075,14.45,14.975,3.175,6.2,905.0,297.0,146.0,183.0,909.0,906.0,188.0,398.0,16.0,20.0,18.0,12.0,22.0,16.0,11.0,17.0,-0.29229430214007524,-0.013728354123354615,-0.11676230930368944,-0.08888725909761137,-0.7355721151286808,-0.3695779185941837,-0.17350935491015448,-0.19310525260549652,-0.26254214586856683,0.0027772876858340226,0.12360132087846339,-0.24187122388375062,-0.12098119265898241,-0.15042225246911636,0.0013893532937415316,-0.2884965259902287,-0.5857021035841958,-0.5843598211801228,-0.3378637660567278,-0.3498141225066935,-0.368280202568168,-0.5987389989717904,-0.2569722548090792,-0.4273145679111735,-0.08811351295628864,0.2418794493559301,0.1517209542536782,-0.12719652235558043,-0.3637067402711208,-0.4486413790401161,-0.3127979174517614,-0.45775837154852517,1
13.875,4.475,2.225,3.0,11.75,15.775,1.875,6.1,765.0,250.0,133.0,198.0,640.0,752.0,107.0,354.0,17.0,15.0,13.0,15.0,14.0,12.0,6.0,18.0,-0.1226224003043877,-0.009100728000276571,-0.22368488224271696,-0.22743697857353357,-0.3285469147910726,-0.2758671665034613,-0.29695536084443375,-0.4206812623244246,-0.37959577509149706,-0.19429593614511118,-0.18536527353410087,-0.12563085330145954,-0.26979524195429755,-0.09442236064687488,-0.3245961472683746,-0.17783470941413018,-0.0350417980973536,-0.3247191015532697,-0.11716615283718536,-0.26899975398266285,0.28555923398252414,-0.5459602064035498,0.01848262945522266,-0.28020408014069703,-0.22764429073891834,0.2473195998829695,0.13338308731258963,-0.26459842386243015,-0.29007213377235674,-0.3707418418121782,-0.23882411279616064,-0.24333705701277336,1
14.25,5.0,2.2,2.6,11.5,18.775,1.725,6.6,759.0,303.0,113.0,138.0,606.0,960.0,91.0,443.0,14.0,18.0,11.0,15.0,12.0,12.0,12.0,21.0,-0.07439320666622602,-0.22810072494996347,-0.38220484312955844,-0.1675245038380502,-0.40405571390887435,-0.13737365659855685,-0.3527185929594645,-0.3781400423435029,-0.14648684237828893,-0.09854111022464716,-0.33385743139913415,-0.09183689947084926,-0.13807406966271088,-0.21833592098227542,-0.2991023977226575,-0.24823751168304034,0.11152835404930496,-0.2487225440398804,-0.30778452371644854,0.06564631828387738,0.055544780724862665,-0.10332207466358853,-0.4120069249301822,-0.010750705760996081,-0.05210424908494543,0.20866959065582646,0.024622459071135822,-0.22385168400916486,-0.31468795156095813,0.0021069121883069203,-0.00019836858918444985,-0.3593397852598187,1
10.025,4.275,2.125,2.825,11.05,15.075,1.95,6.7,534.0,269.0,118.0,145.0,632.0,793.0,114.0,461.0,17.0,18.0,13.0,13.0,14.0,14.0,16.0,17.0,-0.20785390319868627,-0.3978497502942129,-0.49372863889684415,-0.06125462705428415,-0.5901469214855226,-0.2138331443069853,-0.5472121676672309,-0.4775571483885005,-0.17058106635796202,-0.144159209656333,-0.43829889402827604,-0.30103732028023905,-0.20447259760372472,-0.1996736688083075,-0.2525537421120797,-0.35008818383141793,-0.13766994544252625,-0.3138219357685791,-0.33099668416869965,-0.015007029620262726,0.037988525833568904,-0.09965854381591252,-0.5332619316897865,0.04792933362156815,-0.3855362498429574,-0.29054967066022913,-0.2377893656186119,-0.12421854442401475,-0.5208591281484465,-0.3818251112767871,-0.28824568078208657,-0.16447097768998842,1
8.6,3.25,1.8,2.45,11.75,16.875,1.675,4.9,587.0,205.0,91.0,131.0,784.0,1149.0,89.0,281.0,18.0,15.0,11.0,15.0,20.0,17.0,11.0,11.0,-0.2903271151985312,-0.01461012010190589,0.20875618352754394,-0.09648075832802239,-0.37172606188420926,-0.18185825822119972,-0.2810760876732492,-0.36863591141495916,0.22784074441954064,-0.19476252648364345,0.012428168411466885,-0.02270286974456219,-0.18317238171239453,-0.6042967784171099,-0.14226845396588442,-0.2693264820352283,-0.6678862631755189,-0.40817692499049063,-0.3331993247503933,-0.2602530893074904,-0.6223968567075057,-0.4418673026415333,-0.5139482051491179,-0.4038527351522928,-0.2378275556233164,-0.11652879968261726,-0.1033638562841999,0.0066154074226644245,0.10029113382466583,-0.4424035837664165,0.1364193643421376,-0.1417780582354853,1
11.275,3.85,2.075,2.65,12.675,14.425,1.85,3.825,761.0,236.0,99.0,139.0,814.0,824.0,90.0,213.0,19.0,16.0,12.0,14.0,20.0,15.0,15.0,14.0,-0.38323305432873495,-0.5266437752085591,-0.1817734779525508,-0.19272913988573623,-0.5635948982618517,-0.4357858794246494,-0.2792460488575978,-0.2093002454743224,-0.0014681764773623515,-0.33980281903996307,0.05449985473599505,-0.17956579685591328,-0.1312706178783048,-0.014585624148906066,-0.2178793485239932,-0.21845376136122358,-0.2919084536210475,-0.17011717721271533,0.060769269921821974,-0.046011538585461066,-0.12929330444566176,-0.339698721328432,-0.12765956458833636,-0.4033185585591976,-0.03265743754438262,-0.050682765669015716,-0.16749118023667528,-0.1209303202343733,-0.21674171626119818,-0.39538432769182175,0.06433206955765647,-0.08544126473077805,1
12.275,4.45,2.65,3.125,18.825,21.625,1.825,7.175,726.0,272.0,156.0,177.0,1218.0,1358.0,102.0,460.0,13.0,15.0,11.0,15.0,16.0,14.0,12.0,17.0,-0.12998237358501888,-0.2574965331383913,-0.03536357306716435,-0.1653341813763232,-0.329759118737598,-0.2947977601526667,-0.17590095378921622,-0.5293709781995402,-0.2751882985253038,-0.1352310926543301,-0.1128434588612204,-0.3670948621047321,-0.42712251355662045,-0.31667915464172247,-0.4129175268191325,-0.5449255510430783,-0.5316926546899032,-0.34986778930388196,-0.5683877929936305,-0.5614598638720418,-0.45898543298774963,-0.37449338060506865,-0.5005448460485411,-0.5968233984328529,-0.25669539755015736,-0.628860422692149,-0.3677796320347771,-0.2866888718266277,-0.4923457937662792,-0.48752394427211954,-0.4140297878241073,-0.19419261109711133,1
10.7,2.75,2.05,2.9,11.15,13.725,1.775,6.325,664.0,175.0,132.0,188.0,674.0,853.0,104.0,398.0,15.0,11.0,13.0,19.0,16.0,16.0,13.0,19.0,-0.18143919689822502,-0.1347112897738102,-0.09197367953705385,0.15695858823246223,-0.4154344221612214,-0.11755774927764025,-0.18641649985471473,-0.3626419185124219,-0.4212311588727871,-0.4091036022698962,-0.14164149425173173,-0.2900695587352549,-0.6274654068953828,-0.36249438210452684,0.007692276338126035,0.05508010806913549,-0.1770253289784985,-0.5589790819679593,-0.17853270086356646,-0.35663036917032287,-0.1279209596277198,-0.32012253021879095,-0.20074864948708038,-0.13851284459318203,-0.2678431903913367,0.006486794893018047,-0.08086871070054898,0.08917944165375988,-0.09676555356708776,-0.2192530996758888,0.23502486500469022,-0.49912888640008835,1
14.35,2.15,2.025,3.325,11.275,17.275,1.725,8.675,964.0,94.0,116.0,202.0,724.0,973.0,99.0,595.0,16.0,12.0,10.0,14.0,18.0,12.0,13.0,19.0,-0.6276964467404897,-0.3312583399143779,-0.5605185926871403,-0.541158009709309,0.18188533526843134,-0.24634322092311284,-0.2611114008742911,-0.21716687044625207,0.029825741012671374,-0.39584695312345314,0.0008068900706508988,-0.07775658517289193,-0.3335019389674348,-0.4217526172290313,-0.3235398986131288,-0.268667347506052,-0.18235700894915938,-0.7132327645791079,-0.20898587731537635,-0.46992597682120213,-0.03019025185678737,-0.6130298349449556,-0.14152943566685613,-0.30175573011544476,-0.2348295685991667,0.034880941035947466,-0.15989390351751867,-0.20921842696885415,-0.41843610050703417,-0.18213635696394437,-0.05005438893414156,-0.3346143689928707,1
12.45,2.85,1.45,1.825,12.9,16.775,2.125,6.65,721.0,166.0,67.0,105.0,835.0,1075.0,136.0,435.0,14.0,14.0,8.0,15.0,15.0,18.0,15.0,15.0,-0.47223635087495214,-0.46803495721295546,-0.42080826094686424,-0.13453266010462037,-0.1648499864682563,-0.37689420346905905,-0.0528670912258134,-0.458954086889844,0.4986186308835414,-0.7351741834882998,0.2106065415861871,-0.22321973387689317,-0.0020205267153700856,-0.06402444404867033,-0.27394529528392975,-0.016387240198322463,-0.4738844630410377,-0.4719419626747706,-0.43536881781238407,-0.37018172132070315,-0.39869656984997687,-0.37879671511427787,-0.3073142334908258,-0.33675062850619886,-0.6097232806036251,-0.4643769125053532,-0.5712947535659183,-0.2785758538321575,-0.6449849437935333,-0.5327004050446182,-0.3676268301738873,-0.3119131255827916,1
15.05,3.775,2.1,2.575,13.5,17.2,2.075,5.75,902.0,220.0,118.0,155.0,833.0,1025.0,119.0,352.0,17.0,14.0,16.0,15.0,21.0,17.0,11.0,13.0,-0.2882733921005272,-0.2905738138583888,-0.24118752948074798,-0.08810479393339155,-0.2204981388756014,-0.15869750796750223,-0.17677412764666936,-0.22829392452686476,-0.13529707210834827,-0.13671641114806918,0.0031876088994308065,-0.08643895421050775,-0.24760095429274623,-0.2418212256462577,-0.048156873923250174,-0.12342274734321891,-0.25515271436320314,-0.2871768762479681,-0.2849666061059341,-0.1311732623433217,-0.1657770043361447,-0.17378635362316716,-0.24323091391359242,-0.005184559718312171,-0.1779267427412151,-0.29735658176224683,-0.353420926227369,-0.2045485351917419,-0.4558610407999167,-0.571865955266357,-0.43875396117635496,-0.48996981704346565,1
10.325,4.5,2.375,2.85,15.075,19.825,1.525,5.475,708.0,269.0,143.0,184.0,994.0,1304.0,91.0,366.0,19.0,12.0,10.0,19.0,17.0,22.0,9.0,18.0,-0.36433825207066484,-0.04107050735156973,0.08170725982042966,0.14537172019643663,-0.45338601681644985,-0.40813374789384066,-0.3466974403599023,-0.29604723900886754,-0.34007357620461404,-0.11104408192244197,-0.2120941844888179,-0.417028705959587,-0.3762607306032701,-0.16076420443720651,-0.20906429319455064,-0.32356139027432645,-0.7185520431160166,-0.6244975743016936,-0.5193942369161185,-0.4675593136872022,-0.38115216597209783,-0.3420861350301198,-0.305903398377419,-0.4719872227178298,-0.26052651304571656,-0.3011358050091434,-0.22171268686534007,-0.0036058546874765795,-0.48397927304082194,-0.03155526335019919,0.014831818655269655,-0.268267015598766,1
14.2,3.625,1.875,2.2,13.225,15.475,2.1,8.55,1030.0,232.0,105.0,129.0,875.0,932.0,130.0,600.0,19.0,12.0,12.0,11.0,17.0,17.0,22.0,19.0,-0.41616380692113436,0.008951836968686974,-0.03607864655789422,-0.1361078815599887,-0.44465813453149045,-0.4359653662802239,-0.2454951418617796,-0.2728824569488362,-0.13597829147257315,-0.31999946125001766,-0.10045062383427036,-0.25315693780108406,-0.1802396313282466,-0.3504704013390326,-0.19793459293490218,-0.2878587732008669,-0.579877886030037,-0.47716096748401365,-0.500350431392128,-0.4238174003991362,-0.38869089660413975,-0.6469674163853147,-0.45460279553390537,-0.37605474599238053,-0.31507995129162436,-0.06685544049348316,-0.07394314708093801,0.018158512088105937,-0.371152348848671,0.12586360822564258,0.3210688133905367,-0.04936329949949776,1
14.55,4.25,1.925,2.675,11.7,12.375,1.85,6.875,1002.0,286.0,117.0,184.0,783.0,828.0,114.0,437.0,17.0,18.0,12.0,22.0,18.0,20.0,12.0,16.0,-0.4152506993207752,-0.25605564010569487,-0.0679282555730217,-0.31312040680717756,-0.40787592273449963,-0.006131498381078587,-0.07639596843455018,-0.1591229150385493,-0.19460134548345526,0.03038317403634898,0.010317760026559595,-0.2368667404671382,-0.5119841433131491,-0.14845240917936509,-0.10309545794328766,-0.11761155466609516,-0.38336690910042404,-0.4017170202855733,-0.20135244085560122,-0.5080383095483364,-0.5357059775039775,-0.4721123378614953,-0.37130945426566786,-0.2643860615140762,-0.3786434160341747,-0.1515762974977951,-0.015995174208957456,0.171915274159986,-0.24904034730069805,-0.06671598247628298,-0.09118969384082154,-0.2855593643658084,1
12.85,3.65,2.225,3.025,10.275,13.525,3.625,7.325,836.0,247.0,144.0,193.0,703.0,932.0,160.0,472.0,17.0,18.0,20.0,18.0,21.0,22.0,10.0,16.0,-0.5700783787536263,-0.30260298218821535,-0.020536941169528405,-0.12925344863164775,-0.6741592445790121,-0.2620319188499553,-0.3591341756755846,-0.31033154890069276,-0.342565789329219,0.09608765536331035,0.04099014518502502,-0.001913800298849541,-0.43331571967902155,-0.06945046023622585,-0.14018491441223224,-0.10158952511612013,-0.7723186437586149,-0.5678023896035078,-0.5751229510462549,-0.4927036105991093,-0.7468920828262804,-0.5162065783829841,-0.34865350820787294,-0.26132015910721257,0.2118075516242406,-0.1436136832435884,-0.1683989122554594,-0.3775007519377578,-0.4160651988283714,-0.39446034081598935,-0.38013437955931056,-0.4863797149723959,1
16.7,3.825,2.325,3.275,13.8,9.925,3.6,9.675,1012.0,245.0,146.0,189.0,930.0,575.0,176.0,687.0,15.0,17.0,14.0,18.0,17.0,14.0,17.0,19.0,-0.25810710204885734,-0.10835404045015434,0.0511344580240673,-0.1434462381350144,-0.35028228399883504,-0.3121985635725174,0.007296561493875905,-0.20588093957079567,-0.2615945268334885,-0.03589475350604891,0.06724087287758827,-0.28738767199025056,-0.48058604569657987,-0.4983218422518904,-0.3693013550378942,-0.5123911837548532,-0.6024097431977928,-0.32572303659089785,-0.16304358587951367,-0.23124924981581493,-0.3608928520420167,-0.5421077432744639,-0.2317895834299152,-0.24025660071566943,0.08661333854882645,0.025829461830347025,-0.11531005109891655,-0.29346987970243676,-0.47041666245946945,-0.003369372197547778,-0.09059512093546393,-0.08068758983016878,1
14.625,3.825,2.35,2.35,14.475,14.025,2.475,7.325,871.0,245.0,122.0,134.0,861.0,761.0,142.0,444.0,15.0,18.0,12.0,10.0,17.0,13.0,17.0,13.0,-0.23868509506540359,-0.4229695017291084,-0.023513294468736214,-0.17309447834740474,-0.2841057610725722,-0.05878544122950592,0.04163376946489276,-0.2456250625518166,-0.13675398099002836,-0.17023762135010545,-0.2517717449378599,-0.15517789781061225,-0.14291878877436098,-0.431279739722741,-0.09007805129942026,-0.24749035396172628,-0.3249777602088086,-0.5210929941637273,-0.1041789022750348,-0.32971446664862625,-0.08392890714404713,-0.47141341911606793,-0.10594554005743442,-0.47568265736587384,-0.24367731147895627,-0.3956010464700027,-0.09699273146818854,-0.1661216655992337,-0.18422902202567537,-0.26561036870413424,0.06021430863395201,-0.08015097188342082,1
11.825,2.825,2.875,2.925,13.575,18.475,3.3,5.825,707.0,183.0,143.0,180.0,771.0,1034.0,184.0,343.0,14.0,14.0,13.0,13.0,16.0,14.0,16.0,14.0,-0.22794098559590767,-0.4342289289354035,-0.21986223965745288,-0.3337336090531511,-0.31721794081663224,-0.06522202928190259,-0.1565345968368621,-0.2531425950448401,-0.1672161544061657,-0.3320709232576232,-0.2746571717204934,-0.26551966241158254,-0.43925835433243093,-0.4132497045942224,-0.40218651392034865,-0.5735473016285433,-0.36820937027533424,-0.5859628732078019,-0.3170331849334911,-0.4591217787162661,-0.20824591648857496,-0.4978321589377282,-0.18487531846657929,-0.4431451987717114,-0.11589178830165839,-0.033473038570614004,0.05514795973759763,-0.06312855821206267,-0.0995215828706101,-0.13738696282700016,0.05061282180265647,-0.04556702999062087,1
14.225,3.4,2.5,3.1,19.375,21.75,2.125,7.825,935.0,224.0,140.0,188.0,1055.0,1278.0,141.0,444.0,19.0,15.0,17.0,17.0,15.0,14.0,17.0,17.0,-0.4316728223671521,-0.13467875379110447,-0.25227096209823235,-0.36580500118278336,-0.3737334462073872,-0.07777883418312412,0.24930011801891683,-0.03704611210398989,-0.23637989923072308,-0.1891879755806597,-0.13514628312639357,-0.17398355088461434,-0.480514995603101,-0.46591433349994266,-0.3451261178750439,-0.5126606522203253,-0.29574222927334165,-0.2772873319713051,-0.39505234292310815,-0.43722164285600323,-0.38733216964379874,-0.3207588610611019,-0.3162524763038771,-0.47853843049068373,-0.6441128811170646,-0.3555522140435317,-0.33387632444783594,-0.2239675196552601,-0.0965053107539547,0.017736440056743526,-0.26385868592445344,-0.06417505918071119,1
13.525,3.775,2.425,2.7,16.1,17.7,2.025,7.0,789.0,258.0,130.0,135.0,1062.0,1008.0,126.0,468.0,16.0,17.0,14.0,10.0,20.0,17.0,17.0,16.0,-0.2546985301558286,-0.31049601408336386,0.016245281421522453,-0.21781955203015163,-0.6244715234585538,-0.4175739018810688,-0.3428930641197673,-0.5384240467370912,-0.20198602554735343,-0.021173090185407847,-0.3013854180727726,-0.23734452270004106,-0.21160431782903785,-0.17100954044675545,-0.3779129762232932,-0.3205275152032633,-0.4510462008586491,-0.12149307954554064,-0.35046854259386206,-0.29454844230777294,-0.274918364553408,-0.09037623278573485,-0.33880797093653636,-0.3446566366290812,-0.3194589904060095,-0.4531549268023185,0.03555813576737066,-0.3020816031660512,-0.5198530785918865,-0.3439586847552573,-0.2244287127964821,-0.30292384391110916,1
14.9,4.325,2.3,2.525,14.1,15.175,2.5,8.6,1004.0,276.0,120.0,145.0,869.0,906.0,159.0,594.0,19.0,16.0,12.0,16.0,17.0,18.0,13.0,17.0,-0.3463723785191466,-0.3103781399069501,0.05438364915827282,-0.1341085889471511,-0.7579815311974245,-0.6327102742659444,-0.3961028959579717,-0.19601804967256004,-0.08605821228291455,-0.38787683733400585,-0.33879670902378833,-0.11639332123623075,-0.3547499710951945,-0.2949705043172151,-0.2775479347192257,-0.20420397122276943,-0.27620260454095497,-0.13437681180687086,-0.1423782902343126,0.054143729711619654,-0.41182482514113056,-0.17406797084748432,-0.3932742927494442,-0.38950842042479616,-0.19176048304842455,-0.3854204223876104,0.003832767776279345,-0.4019464675176174,-0.539230840427496,-0.3448079179917627,-0.15819489927819888,-0.25288693822065783,1
12.375,3.475,1.9,2.15,15.325,14.4,1.775,6.05,793.0,209.0,109.0,127.0,965.0,767.0,92.0,425.0,16.0,15.0,12.0,14.0,20.0,15.0,15.0,18.0,-0.24609263753189234,-0.31613543326358806,0.05175218906412369,-0.31698547270827754,-0.5374229694003301,-0.2586816693253587,-0.3625157304853704,-0.43271136534562804,-0.08469931569115374,-0.02112760552968603,-0.2645517012935734,-0.015224395788451455,-0.3527058143862448,-0.44285637494242164,-0.18839673282037078,-0.15177907517738312,-0.3603991632784697,-0.252831385029807,-0.20468596606024522,-0.3142401428779847,-0.2425599253382107,-0.26520162345271747,-0.28453804394290133,-0.3872658580052279,-0.08891057467214909,0.027259749907278297,-0.13742481813718224,-0.34153201946969297,-0.6496080130193026,-0.7212620130210617,-0.39307280312400256,-0.5232414475688792,1
8.05,2.3,2.2,2.85,14.425,12.775,1.85,3.325,533.0,140.0,117.0,195.0,889.0,778.0,105.0,216.0,12.0,14.0,12.0,17.0,16.0,17.0,11.0,15.0,-0.2841006762273103,-0.10314754046120285,-0.3932114900673742,-0.35701330278200616,-0.3059592877645903,-0.2899231053573904,-0.20635903593077556,-0.4492080568879535,-0.006987692197746728,-0.07515525026770042,0.1398276970877071,-0.24409314846537278,-0.39345139436609233,-0.41393208400060255,-0.24962914255285693,-0.6665432221652123,-0.5799718680308634,-0.6256752552607767,-0.3202241214026552,-0.22252684366019934,-0.5056280151301691,-0.5887973709932117,-0.3084965146240961,-0.3763806188170846,-0.36078938780126907,-0.04068055068611831,-0.20162996625389806,-0.43061317455513265,-0.3072362445525764,-0.18029502863613242,-0.11216702024107623,-0.2835341806376255,1
9.925,2.875,2.025,2.65,13.925,14.75,1.575,5.425,653.0,183.0,103.0,147.0,1017.0,996.0,88.0,376.0,18.0,16.0,10.0,17.0,24.0,21.0,13.0,18.0,-0.43178191163504337,-0.2942105128070864,-0.2402984787089343,-0.13561912790209107,-0.5717888638571138,-0.3264797127705174,-0.38185094044558915,-0.17693742809989946,-0.20043072020414332,-0.22875960975544968,-0.1763108202604706,-0.20699366044529469,-0.3274577055311299,-0.3875268896158431,-0.20151608400212345,-0.42806099363740785,-0.6258633935752024,-0.23279936243105528,-0.15603840929302698,-0.06824483976307393,-0.565866200966014,-0.2718825759673986,-0.3759213044928113,-0.13637134507891405,-0.19897953099514,0.22145055522225207,0.15469299773489495,-0.08717230585398449,-0.6798291403974546,-0.19855259205223078,-0.3177147026425807,-0.28538208916647556,1
12.825,4.025,2.1,3.025,18.625,15.575,2.25,7.825,774.0,254.0,127.0,179.0,1314.0,1053.0,154.0,517.0,17.0,13.0,13.0,15.0,22.0,20.0,18.0,18.0,-0.31215073338629246,-0.21359614236334612,0.02853456285784632,0.03763240755523829,-0.4072334503763024,-0.25355442104353365,-0.31393700316903184,-0.06849025341526299,-0.30603208474918175,-0.49542344380942543,-0.16263639490312615,-0.30618203204033645,-0.3108669044873776,-0.2673126974830605,-0.17286054383732466,-0.3376284305915917,-0.5647511104110055,-0.24831099551561958,-0.18767336654516223,-0.3575492526102362,-0.6367988111622198,-0.38827614898619367,-0.27569977700104964,-0.4069469510696781,-0.3546931741908029,-0.21781641431980656,-0.16290562557032695,-0.14424366940935357,-0.22343627670988123,-0.07840169358620752,-0.15981281710797476,0.1461609497676544,1
13.8,4.8,2.5,3.475,17.85,23.225,2.525,8.325,874.0,298.0,156.0,201.0,1091.0,1402.0,157.0,503.0,18.0,16.0,13.0,15.0,20.0,16.0,14.0,13.0,-0.3390590838804937,-0.0034722025792885223,-0.27956169755140464,-0.3683456781419232,-0.42792078122452504,-0.23260885575342752,-0.34379850388668803,-0.3373389794038593,-0.4376150052232089,-0.5210295393808257,-0.5569132700437072,-0.2867021520560738,-0.29854981214400633,-0.20553006143002145,-0.44364829511728165,-0.0799079038049099,-0.5355441573059037,-0.5656331807427049,-0.40865815807306605,-0.26232007077945013,-0.657441918838027,-0.7485861088754222,-0.6532462952590778,-0.45534388158323275,-0.32349453326074656,-0.06964550797351418,-0.06316227537822204,-0.008179448111662465,-0.19779639641571214,-0.01601292863972953,-0.11553751829511247,-0.1566837510938539,1
20.65,5.975,2.375,2.875,20.175,25.0,2.175,9.3,1314.0,351.0,156.0,165.0,1159.0,1534.0,139.0,634.0,16.0,13.0,12.0,16.0,17.0,17.0,17.0,19.0,-0.3870735009389114,-0.34406198087691287,-0.04775343127461433,-0.3306534546907153,-0.3951263280929433,-0.2813959964159881,-0.2538108320148445,-0.238510492605386,-0.2509164844180767,-0.08827731075282577,-0.4182468954414162,-0.28545987765624,-0.3011014585145182,-0.17248744874277555,-0.3106196464352026,-0.23233829700222025,-0.4472692477638106,-0.4746495850911053,-0.3612300996528587,-0.46731925726809787,-0.43187734746645645,-0.5190267867995726,-0.318557688391002,-0.5465205426124863,-0.44945075607412893,-0.12030769989416928,-0.37233112004679253,-0.2644873676365817,-0.2929792569335207,0.4590557636650962,-0.021515682473855158,-0.3285868309986404,1
13.625,3.925,2.925,3.5,22.85,24.125,2.475,7.6,786.0,238.0,182.0,235.0,1437.0,1529.0,167.0,486.0,14.0,21.0,16.0,16.0,20.0,16.0,16.0,17.0,-0.2846013832173488,-0.2356182554491096,0.041576460402460984,-0.13887004299628666,-0.42449316107353513,-0.11589986570675062,-0.22250655483932189,-0.21432727467655585,-0.6186394419091895,-0.3689772872241947,-0.6044644140264405,-0.40853895854932626,-0.506069646917528,-0.22111945453592446,-0.37880699455043276,-0.2303850953470032,-0.4683538454830746,-0.3696346246790226,-0.10627694374517715,-0.2438883451999135,-0.5258499662542196,-0.42632715715351965,-0.4174321292991166,-0.43785318647651417,-0.4375854737320566,0.08886075466826028,0.06035729119145586,-0.05425191084017793,-0.34147422244982945,-0.10005398955240262,-0.29862905727079103,-0.20365849377453238,1
14.875,3.775,2.2,2.225,21.35,20.225,2.2,7.3,950.0,225.0,141.0,147.0,1352.0,1213.0,141.0,448.0,19.0,13.0,16.0,14.0,16.0,14.0,10.0,17.0,-0.44719728285373217,-0.2686027454739548,-0.3954160260598893,-0.24154844345498053,-0.1892920439372166,-0.6605646871738385,-0.12215685298082941,-0.46562079580178845,-0.3304552953722269,-0.39505194679929684,-0.14031512292084652,-0.4059944901888774,-0.5903922009625063,-0.4290415542412859,-0.41857552694750744,-0.2862660083603672,-0.4688101068599238,-0.34348778485796083,-0.3126382731404887,-0.33617024626326214,-0.35107307847720126,-0.4465932332468558,-0.33845740860636614,-0.3513631433079739,-0.450036431376633,-0.3008821259990979,-0.28116122329813614,-0.3680867462449444,-0.36559567278245914,-0.24695101127273777,-0.14631381359820808,-0.1918359265668021,1
14.25,2.85,1.525,2.2,16.075,15.725,2.075,7.725,912.0,139.0,90.0,135.0,882.0,976.0,130.0,500.0,19.0,14.0,10.0,17.0,18.0,20.0,12.0,18.0,-0.48188774515079946,-0.11909089204973138,-0.3247828607925023,-0.287758456150657,-0.12619923693658974,-0.16197418296595226,-0.28706563462327633,-0.3105605659236992,-0.3973295562587446,-0.4268786330969922,0.1297929147936498,-0.015491364628143522,-0.29910033705996486,-0.22125751501858915,0.19671026911171,-0.17530132090435904,-0.33060584768133244,-0.4022475768609711,-0.09753419994194297,-0.02454204033713002,-0.5803694963114462,-0.7402669221109391,-0.4237588311888248,-0.5075122308626494,-0.31690192076762347,-0.061672682067140216,0.13096600048388132,-0.25109648330346146,-0.3965886314039605,-0.3711435446901502,-0.21443594530682508,-0.19877219623863973,1
14.75,3.4,2.375,2.8,20.725,22.975,1.825,5.775,938.0,198.0,157.0,194.0,1400.0,1494.0,98.0,344.0,21.0,14.0,16.0,21.0,19.0,19.0,7.0,15.0,-0.4388416127034573,-0.2493488242790398,-0.2985989478034356,-0.3499930842289591,-0.4347269901426217,-0.26420923600356655,-0.38395230451191015,-0.44570446009942466,-0.7491250595114421,-0.4697649854923617,-0.5802888627634746,-0.2317357592979559,-0.8589649289443682,-0.4675398130032927,-0.5412417324897555,-0.3044505973547387,-0.603198949760351,-0.1320246966235107,-0.49932217382981275,-0.4643934982467571,-0.7201459745244431,-0.45922799136377623,-0.7203516073392627,-0.46431532569407924,-0.22425384710217794,-0.07105843313647892,-0.1408973331082968,-0.4776870952851022,-0.2616569131664239,-0.15178445608401445,-0.45269595314809596,-0.28397876172657377,1
13.675,3.0,2.375,2.8,19.275,19.05,2.4,7.375,882.0,192.0,142.0,163.0,1334.0,1110.0,143.0,500.0,14.0,16.0,15.0,13.0,22.0,18.0,17.0,18.0,-0.4944019957620221,-0.2964678388726004,-0.3720908551027869,-0.39560242718577204,-0.6137215436232792,-0.7064888617996378,-0.46274307772917,-0.44338393612934834,-0.5166350293755821,-0.3896079507749281,-0.47618321680322745,-0.3373770330075844,-0.3243529781709951,-0.06944216595239484,-0.2211781755426199,-0.034896646197596026,-0.5480990028736064,-0.3850750882344921,-0.2413051946724604,-0.5621006402526657,-0.6018957774192308,-0.5233454989797434,-0.636411523132612,-0.5561074251948933,-0.43415348064427584,-0.3139257953962316,-0.27743175605342546,-0.2605917520010045,-0.4598786835038514,-0.06125176090661148,-0.22080565966280352,-0.3855446637006996,1
12.25,2.825,3.15,2.925,19.225,22.325,1.85,5.975,779.0,166.0,162.0,183.0,1277.0,1348.0,95.0,350.0,16.0,14.0,9.0,11.0,17.0,15.0,10.0,14.0,-0.2200505920377748,-0.4134010719180385,-0.15326235831343887,-0.39458351934845104,-0.021706882973695933,-0.33685356196030614,0.10849769542004492,-0.4572965261315102,-0.086144418955417,-0.23506443820054657,-0.1275601635996016,-0.3100039607091012,-0.3633422940980945,-0.47499965048689313,-0.24303779047661297,-0.38260232098999747,-0.39088999004439395,-0.20606991406285394,-0.17355950350571622,-0.42238111620680047,-0.29989529536349346,-0.21064906374782114,-0.3409100895022316,-0.41520955526311754,-0.18165047327734413,-0.1520389116241158,-0.3555201246617622,0.0964350067951498,-0.38891910450694117,0.009689118334475142,-0.3319546244502897,-0.3347178079599975,1
13.05,3.125,2.35,2.825,15.525,18.3,1.875,5.45,780.0,164.0,113.0,165.0,879.0,1035.0,114.0,352.0,14.0,14.0,10.0,10.0,14.0,14.0,11.0,14.0,-0.4772989616563301,-0.4759568619805249,-0.45689041668585595,-0.3465069869153926,0.00905605178958712,-0.25644945238418226,-0.042254629518147076,-0.29253204422322443,0.1170547077320879,0.05950570622770064,-0.08738050892691449,-0.19476199103479389,-0.19135946711452345,-0.28063299870767816,-0.08407194880886104,-0.2711962664520404,-0.2868875966382143,-0.5316970379045267,-0.12460082905723259,-0.2542160543251179,-0.03178561327513293,-0.22392876735961778,-0.011677424748676947,-0.360872183551197,-0.23688251722043457,-0.11656924451380654,0.10556104577960983,0.0347238066460797,-0.48690336764330866,-0.3804800236703104,-0.36298286960950477,-0.2016489226787482,1
13.7,3.5,2.475,2.775,18.5,21.075,2.125,6.5,892.0,219.0,140.0,159.0,1218.0,1419.0,119.0,450.0,16.0,16.0,10.0,13.0,17.0,16.0,10.0,16.0,-0.5168326504000438,-0.3476654510918399,-0.4658544223502347,-0.3557784381849855,-0.7455921653263583,-0.6171876718441297,-0.6310796842378154,-0.4574927610562749,-0.41661945207793216,-0.31697566031184116,-0.3419904311125819,-0.44193074396263243,-0.2234463286555491,-0.3007039963457196,-0.18137449128885677,-0.20370905190499344,-0.5115022355679774,-0.5142575662614954,-0.46941985131535835,-0.5547453653944493,-0.48781235982382437,-0.5066879508841174,-0.47025302663892804,-0.6127191886171884,-0.2591670171386639,-0.23751044310737454,-0.40472193931523526,-0.05517406928944882,-0.4629146599771997,-0.32172031749110813,-0.042439996229984865,0.016985514253363716,1
16.375,3.225,2.6,2.45,20.25,19.6,1.625,6.025,1115.0,202.0,148.0,149.0,1256.0,1202.0,91.0,373.0,19.0,18.0,12.0,11.0,15.0,16.0,14.0,15.0,-0.6248472437844441,-0.27829581813530213,-0.39376137081965773,-0.38085523740404686,-0.24604871245514862,-0.42046924619254705,-0.30503974553381796,-0.20807480396469497,-0.2603756138597949,-0.37234278723610675,-0.07734853378411646,-0.10806444349115792,-0.612718860908054,-0.31534921243020353,-0.14781820429769665,-0.030251674771352807,-0.33042598576010984,-0.41781613745898816,-0.14422951585003801,-0.09528351144281731,-0.39270519641319135,-0.3386656779719269,-0.15298943428616837,-0.03930215150624727,-0.2578452673517806,0.039700591794739455,0.0032766208099005707,-0.14125807953583286,-0.19809163891593679,-0.08834615035592641,0.03860251468070003,-0.03141172573800629,1
13.725,3.45,2.975,2.8,21.7,22.15,2.225,7.525,725.0,201.0,188.0,186.0,1362.0,1346.0,147.0,512.0,15.0,11.0,11.0,12.0,17.0,17.0,17.0,16.0,0.10530264574844887,0.16582279034474995,-0.3498413476745513,-0.15970717415290472,-0.1851646801777327,-0.03594484817445345,-0.3087027030065454,-0.0605859511931578,-0.3720679718867698,-0.07767843718649402,-0.2677193002430465,-0.10469290135554363,-0.4393193217950512,-0.2339659401277147,-0.3757620309542851,-0.08818400465915512,-0.6520138405618803,-0.479126302212555,-0.42040758716728527,-0.44067196174865986,-0.5165909099154598,-0.35069419998385387,-0.44164831015323697,-0.3901851814813017,-0.5402663814370503,-0.1574431228879553,0.22320811754039105,0.16448858841301983,-0.5552019096394525,-0.09974737781793733,0.006912202156816724,0.03860397831967843,1
13.7,3.675,2.225,2.775,15.95,19.2,1.825,7.075,745.0,215.0,134.0,151.0,906.0,1085.0,122.0,457.0,17.0,16.0,12.0,14.0,13.0,13.0,14.0,18.0,-0.10267103836204908,-0.2926488040966237,-0.11965519476047093,-0.21460435166560254,-0.39201825894077585,-0.3775115765371907,-0.3057269571446182,-0.21748903724591812,-0.2489155708943477,-0.25970984630754296,-0.23482771678486142,-0.3371790228945834,-0.09843650912647778,-0.34912688932215213,-0.38498971907887475,-0.13362883612453202,-0.38836627613250835,-0.22391052485722557,-0.24340904548189196,-0.2262894797862163,-0.34862211719076036,-0.4124525746963964,-0.3993498610221177,-0.3578884619978553,-0.3788211334154036,-0.24414450019741515,0.08066637456274613,-0.050267577752927756,-0.5049095655378775,-0.15368740648006526,0.009883332197776824,-0.12623571256378927,1
12.125,4.075,2.225,3.15,19.0,20.175,1.875,5.775,785.0,265.0,123.0,168.0,1219.0,1067.0,129.0,346.0,18.0,18.0,16.0,13.0,19.0,13.0,13.0,16.0,-0.41044674135967224,-0.5001425730488932,-0.2779006898838913,-0.3447040713059715,-0.447316635850397,-0.3432958888301872,-0.2375411133610613,-0.25680240139712024,-0.23264555261110684,-0.2753091757593344,-0.14277669184727002,-0.24397562656799734,-0.4169779909711178,-0.5108674548900187,-0.2535141171689139,-0.3888689370516438,-0.4900107435493069,-0.16533691262682226,-0.2386970797777605,-0.20094680708022541,-0.1687239993590639,-0.34652062662813593,-0.2127035447139742,-0.384381107901826,-0.4326910286945374,-0.03297158876129128,-0.1671152261328229,-0.28678520385433975,-0.4545875727537943,-0.18698478045049202,-0.15037214235384788,-0.01933534741631457,1
12.525,2.9,2.475,3.175,15.55,15.225,2.225,4.95,777.0,166.0,123.0,190.0,1035.0,878.0,137.0,294.0,13.0,11.0,15.0,18.0,21.0,16.0,17.0,15.0,-0.2670050665420129,-0.2922497553322474,-0.3107473006733546,-0.31563284461444413,-0.05068291495382665,-0.5607282941704481,-0.0037946568251617883,-0.6362098235610975,-0.016545556818986697,-0.47430362925856046,0.06107895385228087,-0.23224974718978295,-0.4880492386614297,-0.6913632938186476,-0.3317387102932245,-0.3138143508586092,-0.4264559606371766,-0.16117747217705525,-0.15037012926430934,-0.40350760675776726,-0.007277346489631916,-0.5347293036941796,-0.09661577311660677,-0.538183279239065,-0.22998526943762018,0.018035091915449036,-0.18427511067564314,-0.1604264197247224,-0.4671471386836238,-0.5193883345936053,-0.4689040293775668,-0.3923319636850352,1
10.85,3.475,1.8,2.9,18.025,14.475,2.8,6.775,682.0,225.0,91.0,193.0,1214.0,973.0,172.0,440.0,14.0,17.0,8.0,15.0,19.0,18.0,15.0,18.0,-0.27773609915479575,-0.212759410979108,-0.08815519506711175,-0.060811151765661674,-0.3740531299257504,-0.11071038891957082,0.20088118026251478,-0.26326862101319437,-0.1524387988460862,-0.11841102871186711,-0.12452705470630897,-0.23696303543228545,-0.5597319990658586,-0.5335300416535714,-0.3243559209134065,-0.23015579471710834,-0.5734366853315803,-0.40561645274239366,-0.19545837408472871,-0.1454165719116084,-0.6101594787793131,-0.7203075665206186,-0.32371783504686463,-0.3745920248743351,-0.3703649541441427,0.08014004704458154,-0.24962885470298155,-0.5652695469159812,-0.3358466156991847,0.01961601023447844,-0.2139754023932996,-0.28430797239846806,1
12.875,3.0,1.975,2.5,13.925,15.65,2.025,6.0,783.0,173.0,121.0,161.0,972.0,1084.0,128.0,392.0,16.0,13.0,16.0,17.0,20.0,21.0,14.0,21.0,-0.24277505069510513,-0.11748266338875299,-0.1522151343602012,-0.20751190667408367,-0.3912869290980013,-0.3041388241798728,-0.3548025980521686,-0.23545804689721114,-0.3170679911633012,0.03311494342897599,0.0429030488606898,-0.14821553942167545,-0.4795830555474207,-0.19172678708346352,-0.23886671170977694,-0.27082995836276336,-0.5486405985798187,-0.19699643902076924,-0.20385178674144505,-0.2908092462692643,-0.5450233559888521,-0.5339501806541163,-0.1403041341567532,-0.14596693692461718,-0.47653196676948323,-0.12295398992183158,-0.18871052333980906,-0.169142289178095,-0.47379229181761706,-0.08764179184540526,0.032431781801587935,-0.12145508840735507,1
13.15,2.95,1.8,2.15,14.0,18.75,2.0,7.025,718.0,189.0,84.0,127.0,831.0,944.0,118.0,416.0,12.0,13.0,9.0,10.0,14.0,11.0,10.0,10.0,-0.19050952210468,0.0876693836960042,0.044741225494702316,-0.1954650703012865,-0.2954393348661089,-0.17629645079878287,0.01145778702908192,-0.25070363202462226,-0.00781332779266,0.01985061987854188,0.12763809316465557,-0.25476220361469787,-0.2867788902253227,-0.41585981884654094,-0.2530640870266258,-0.34707066125871144,-0.33752861670993145,-0.13397212598999378,-0.118103533903422,-0.29048504726533486,-0.040900654290697884,-0.21551305845933924,-0.04103229030677805,-0.31189793569060115,-0.14567365954267522,-0.0028494180530693656,-0.32470726594011373,-0.3403983582603289,-0.18364632991643132,-0.027252515363518047,-0.06886382634532816,-0.2994213555656054,1
13.825,3.075,1.825,2.4,18.45,21.35,2.025,6.65,874.0,172.0,100.0,132.0,1218.0,1147.0,124.0,414.0,20.0,15.0,13.0,13.0,21.0,19.0,16.0,15.0,-0.42912389054726857,-0.21443873968519225,-0.33228512952279843,-0.27164660450202077,-0.2911634147484885,-0.11771323116988049,-0.4942961487842131,-0.329170806480609,-0.36030707451797217,-0.11072598002190659,-0.21442593562661927,-0.30170589218682803,-0.30843975669727625,-0.30725790184789664,-0.38879337029295513,-0.4438439583334763,-0.5243469322887044,-0.33348628335404645,-0.3484228212277771,-0.2927523331240591,-0.1936842136393433,-0.49907536904952154,-0.13668474714304413,-0.5748499150778544,-0.13800823176308247,0.11388145513106085,-0.21456264472758232,-0.03863896613061569,-0.40942975205841436,-0.04507404237608072,-0.21688846671012768,-0.3834745868545655,1
12.275,3.425,2.225,2.95,17.025,17.375,1.55,6.275,785.0,216.0,122.0,190.0,1119.0,1096.0,88.0,428.0,17.0,16.0,12.0,22.0,20.0,20.0,9.0,18.0,-0.38369996822192065,0.06960865626281457,0.10130541911998801,-0.23083243656413927,-0.32132547105158527,-0.13222787730336974,-0.09947906518014697,-0.4489319997396176,-0.3723916249622656,0.07059051199644341,-0.10496755317118824,-0.2217182784285164,-0.5528625452353262,-0.12324156448143822,-0.16651358772937627,-0.20612227536077915,-0.597710591381455,-0.22924681949988987,0.10466928209206608,0.10624029092722488,-0.38141226819847474,-0.6917819490458714,-0.16430960638071265,-0.3429130491162498,-0.06548395900437373,0.12640477379751863,-0.004025182716715249,-0.11884841839352295,-0.40259977363327554,0.03854468818916858,0.014549793605478579,-0.28191275362216983,1
17.325,3.25,1.95,2.225,24.65,17.95,2.0,7.75,1095.0,185.0,106.0,133.0,1682.0,1128.0,109.0,506.0,15.0,11.0,15.0,15.0,21.0,17.0,14.0,19.0,-0.4302456304245217,-0.22635262704672923,-0.306398041591575,-0.33189085947179847,-0.24329110534057713,-0.2609384113416388,-0.07149005973373733,-0.12793693300862335,-0.17943725132309757,-0.25278265246220755,-0.15325677006344457,-0.1280802019525799,-0.31811691637307665,-0.38251987043304303,0.030814613246577298,-0.0885110995839218,-0.6887701068269756,-0.39291152745829316,-0.5001257790243867,-0.38820750743011606,-0.37716310179888707,-0.15708170578070701,-0.5407665893788602,-0.3253249008892936,-0.17582625018574244,0.08766538751402393,-0.26056499172738806,-0.4810350241772857,-0.34477021807054137,-0.07178251281334518,0.13983587672273556,-0.15689738178376178,1
9.475,3.675,2.0,3.025,18.25,18.8,2.575,7.275,521.0,234.0,126.0,195.0,1139.0,1246.0,165.0,474.0,14.0,16.0,14.0,19.0,14.0,16.0,15.0,19.0,-0.08777565955005366,-0.08638698755489857,-0.13765928485132395,0.10772668002526661,-0.5432237194558214,-0.4441123353314492,-0.3271668255265599,-0.21106188539368187,-0.27168882107382425,-0.11372177414284242,-0.19591939657355611,-0.1761969492803208,-0.5380204748886669,-0.32135336297617095,-0.27378565604162086,-0.2729397314954641,-0.7167743919106991,-0.4705893294510641,-0.6255453930300091,-0.37197474085851184,-0.7411318936695199,-0.5102203916612272,-0.6990618126652554,-0.5531437678560858,-0.5295403790412795,-0.2903532201170254,-0.09919580290640433,-0.39121340204201244,-0.5470680307114739,-0.41297477240856134,-0.2876906272767747,-0.47596360251126635,1
12.275,2.15,2.1,3.1,14.925,16.3,1.925,5.325,800.0,130.0,106.0,211.0,983.0,955.0,115.0,318.0,17.0,15.0,9.0,16.0,21.0,19.0,10.0,18.0,-0.3940943802813165,-0.42541101113213314,-0.3059401946583362,-0.5310706001295645,-0.28853886199684026,-0.20667320378092804,-0.38377958960221803,-0.09074663499361604,-0.07321329349366378,0.0001450907290829677,-0.3042777786582162,-0.08323961485465263,-0.7048568126033279,-0.4037709594648823,-0.33863147788564246,-0.0747714818490892,-0.5528827907083868,-0.5060300140592633,-0.3997807132547472,-0.3801825044594749,-0.45966730610924866,-0.4254674994738722,-0.3573710026422404,-0.33920066702182566,-0.2638124594507135,-0.09046526142200403,-0.07411647507494157,-0.37715845588920494,0.03354508330768149,0.0034448771887750263,-0.23871990891351913,-0.18334131876368487,1
12.75,2.625,2.25,3.05,18.225,18.45,2.725,7.775,813.0,140.0,109.0,174.0,1195.0,1007.0,180.0,531.0,15.0,12.0,12.0,10.0,20.0,14.0,14.0,22.0,-0.42561767666370354,-0.16827215035796347,-0.3858216146707112,-0.2511119271997917,-0.15653238566698963,-0.337288987714918,-0.23259900878241993,-0.22676781018955172,0.009251100045893197,-0.28569113610782404,-0.13975483408999165,-0.22601892784047162,-0.14276801064359515,-0.5439129825733887,-0.4111169675542486,-0.275234846754871,-0.3093877486677364,-0.10436742946553842,-0.11699158207231539,-0.10521841968517119,-0.25051256116730697,-0.3906801151165224,-0.37452713938661875,-0.36177242382368313,-0.24467205922130097,-0.05869870191589645,-0.0006843012734576529,-0.24979191633245112,-0.62376816148086,-0.2885931793001477,-0.5654994217913573,-0.2237012835481075,1
12.65,2.925,2.25,2.5,16.325,23.5,2.65,7.75,870.0,187.0,115.0,160.0,1045.0,1432.0,152.0,522.0,22.0,18.0,12.0,14.0,16.0,16.0,10.0,16.0,-0.5894655762801008,-0.27317562350920815,-0.08575835725023463,-0.12511157806990375,-0.5983528410604824,-0.4529981815436256,-0.4656660186680857,-0.2581955218317876,-0.35795177436950537,-0.27140122750932044,-0.557786585429226,-0.25597172038986943,-0.40443110317018993,-0.1938061040975258,-0.30076943716995613,-0.20683766019911995,-0.5820835475020161,-0.47717787441328213,-0.3367377657775497,-0.3171395510570244,-0.5508331002197447,-0.5059936078967503,-0.4993615636022118,-0.36034068256251567,-0.13505591183253193,-0.0746683935604923,-0.23648951034941906,-0.24216909393475072,-0.6851271662894993,-0.27272046426875335,-0.1354314745605709,-0.0156488443967736,1
10.025,3.1,1.7,2.075,16.2,12.6,2.7,5.85,658.0,153.0,96.0,132.0,1080.0,659.0,134.0,403.0,18.0,10.0,12.0,16.0,17.0,14.0,6.0,22.0,-0.38144182300293494,-0.10586605515941075,-0.3662985486768308,-0.30979257208003624,-0.312415056855517,-0.22306860941287948,-0.30686661495149903,-0.27636455963989165,-0.12303007612977826,-0.13922468170605948,-0.03250794906359371,0.10888834556627174,-0.36750064994928966,-0.17354059716382883,-0.11965302172680331,0.07408739260076742,-0.41066002946556734,-0.3184415781636743,0.05443054700244047,-0.1516120047280896,-0.024115794684625297,-0.40548963266310395,-0.13763417595482427,-0.43578669312288215,0.12447390087410676,0.22634794505346376,-0.04262534831947232,-0.46696437352776077,-0.6005113965667966,-0.2523048653999835,0.00927084688783528,-0.09319922283302773,1
12.425,2.725,2.3,2.725,15.4,15.375,2.6,4.325,820.0,160.0,130.0,164.0,1023.0,878.0,140.0,246.0,20.0,14.0,16.0,12.0,19.0,14.0,12.0,16.0,-0.32557040472831245,-0.04464992543788879,-0.3842364286073448,-0.06483632279418071,-0.171200924326867,-0.30271070855460575,-0.18742325083516098,-0.1536312355938724,-0.054973931007132666,-0.2194047738745697,-0.23600455462328304,0.13916969469745175,-0.7064594429014267,-0.6599786864386966,-0.5994727226636393,-0.43680972281898295,-0.6516564059822061,-0.6011468487457746,-0.3241801516711714,-0.29346633850490644,-0.3480542148643487,-0.4443190327057241,-0.5803740982378539,-0.26133078533468546,0.13754324382003064,0.30990741411122563,-0.08889288321557634,-0.4379880348538729,-0.05535330547684279,0.001277784040493117,-0.20885239695951913,0.17702389123449724,1
12.525,3.225,2.075,3.0,15.8,19.35,2.15,5.55,768.0,166.0,111.0,154.0,1024.0,1099.0,105.0,343.0,16.0,14.0,13.0,14.0,17.0,14.0,10.0,19.0,-0.21928882246650427,-0.24457359681751725,-0.35653806131622434,-0.1960333871084991,-0.0569939254578642,-0.31155282369132364,-0.3794550418164766,-0.22147774247353635,-0.2080284535991789,-0.44721055919515074,-0.4099790154432272,-0.1494127093681089,-0.40031830596168433,-0.3016752921505917,-0.3927110808937814,-0.36055794886785714,-0.3799643585984526,-0.19870031125908155,-0.16510599707421955,-0.16714971307813212,-0.3807722071125401,-0.4099404116190397,-0.5203825454938921,-0.3781035678042937,0.13959207159831746,-0.010104192882333761,0.05303576331133911,-0.11920272074993137,-0.48441682117706397,-0.28978538466424536,-0.37716296238511665,-0.14027554050660332,1
16.025,2.7,2.1,2.575,17.575,19.575,1.825,6.0,982.0,152.0,109.0,145.0,1143.0,1132.0,106.0,386.0,19.0,16.0,17.0,16.0,19.0,16.0,10.0,15.0,-0.44578822117065053,-0.39925540066464216,-0.4524652896201097,-0.3571513132332502,-0.08583287602164613,-0.2676316989863869,-0.48846281182634627,0.07513482101634802,-0.47290962108313445,-0.4047726928929138,-0.6736112480426908,-0.22255224738897622,-0.31952420453967917,-0.21559816408408783,-0.3929934777895643,-0.29954086026861226,-0.6439372508831782,-0.533766447759733,-0.5579711108304238,-0.35416114912911434,-0.5200145662604212,-0.47474557448353444,-0.6046433359199107,-0.4500170443394856,-0.061484878793468874,-0.08582259224140622,-0.07333908780354947,-0.3390703195375265,-0.5242163542287769,-0.2892528513314129,-0.3606189431305562,-0.23116283609240904,1
15.45,2.325,2.05,2.725,13.1,15.225,2.175,4.975,1073.0,141.0,131.0,181.0,891.0,991.0,110.0,354.0,21.0,14.0,13.0,15.0,22.0,17.0,12.0,18.0,-0.5421414541887826,-0.3090033104460084,-0.2990857337176386,-0.30508481852615177,-0.38058942942937857,-0.14922705758699395,-0.38263258612470197,-0.21466173451646683,-0.5402920334987481,-0.1733920553777584,-0.29046246493643646,-0.1765370167981613,-0.5117175337297885,-0.3739024364229306,-0.2876693325618562,-0.34114971221293394,-0.8199227908685913,-0.7290134197799313,-0.3384480698040016,-0.3218794412470029,-0.5714940546181739,-0.1247077974952521,-0.10043350148531464,-0.19369635108454225,0.003176563974859616,-0.2861281957332865,-0.07564203503803921,-0.07462117591367876,-0.6253589783884219,-0.1844094952241419,0.08995404178673999,0.06839627815919713,1
14.825,2.9,2.525,3.325,18.1,21.125,2.175,5.475,994.0,162.0,130.0,168.0,1021.0,1345.0,114.0,345.0,18.0,12.0,11.0,11.0,18.0,15.0,11.0,14.0,-0.44814905794725146,-0.23628899382736882,-0.083496332859747,-0.2457849690724753,-0.1477471699986457,-0.17052827363184822,-0.2127361375121441,-0.24461441842677994,-0.22597143779178266,-0.4110057531642948,-0.22598251373006753,-0.3202089167336042,-0.13077064090499235,-0.5681876714266876,-0.09467717648524929,-0.4517512695381036,-0.3019076619279173,-0.34685819186907646,-0.4075877359745109,-0.3191459498866689,-0.5196527695663907,-0.5020121705940425,-0.6048382539485399,-0.4443601678556197,-0.17375581265011747,-0.32933361968958175,-0.163079907150478,-0.16675251658199206,-0.21623042157707295,0.17009188480510878,-0.2421092590179901,-0.25006671433059624,1
10.85,2.1,1.975,3.225,15.975,18.375,2.3,5.65,663.0,119.0,114.0,181.0,994.0,1064.0,133.0,402.0,16.0,10.0,11.0,15.0,21.0,16.0,16.0,21.0,-0.16549762900403928,-0.23563862056853896,-0.22502809987616096,0.025772487698523843,-0.3859063730191519,-0.5916736716148978,-0.2640295651010423,-0.20157919656264653,-0.38362271910363044,-0.37415378079557554,-0.5260852316490142,-0.13221227477658326,-0.42810198751890977,-0.5835459091724353,-0.39369683523422244,-0.49861816003545545,-0.5785427779318938,-0.5608359848977156,-0.631177239906608,-0.5191838785228203,-0.42605787538191225,-0.623856339299978,-0.5505123975085442,-0.4839918642657642,-0.35849370980346384,-0.32880776395394895,-0.08984253519477603,0.015217294056618357,-0.46348575547993665,0.05923191826745792,-0.19504236810484407,-0.4037644374752576,1
12.3,2.075,1.775,2.025,12.625,14.075,2.2,5.8,802.0,98.0,93.0,134.0,787.0,634.0,134.0,376.0,19.0,10.0,12.0,16.0,19.0,12.0,15.0,17.0,-0.390797547793357,-0.24637628091105648,-0.1032758533839955,-0.2284551350645897,-0.09356344267852278,-0.5345187901756826,-0.31959732738557634,-0.21806964707997056,0.03941591570450289,0.083678445589386,-0.02169844951670548,-0.24483493915752766,-0.52700178791989,-0.15960037968475418,-0.328365543081316,-0.41819565084220345,-0.1584950679391121,-0.38683709944902317,-0.015974466540927133,-0.4792780293644653,-0.05036488929133885,-0.42541938962502074,-0.36474451461023777,-0.21588708461420528,-0.3061492552462369,-0.07565973095013678,-0.14265165833537896,0.041284887820275125,-0.5390151423327749,-0.2728899053176413,-0.3627261927586902,-0.40678229926159587,1
13.375,2.575,1.95,2.2,13.9,18.825,1.975,6.75,959.0,143.0,113.0,145.0,757.0,974.0,110.0,432.0,21.0,13.0,14.0,12.0,16.0,17.0,18.0,19.0,-0.5464802318157069,-0.33163821479283684,-0.1691768209908857,-0.11231329022575298,-0.3321716163795044,-0.28275071684126424,-0.26543269978874545,-0.3896127370388465,-0.215787290045796,-0.08813722595072013,-0.2231875129888376,-0.19323582176603574,-0.41378527613434396,-0.23681950371277594,-0.36557673839533805,-0.30040636032698453,-0.21759374157330222,-0.4733839721215362,-0.18856720864704798,-0.35356638854344796,-0.3134719683493064,-0.3755303433301186,-0.4086616819095321,-0.5275234814301305,-0.21725048793678906,-0.08775903656681978,-0.005570334815366888,-0.018383952057978405,-0.4233725672962508,-0.1926987450327117,-0.0841288479815672,-0.4758512635109087,1
10.5,2.45,1.625,1.9,14.075,14.85,1.75,5.425,652.0,160.0,85.0,126.0,771.0,855.0,81.0,345.0,15.0,17.0,12.0,17.0,13.0,14.0,8.0,18.0,-0.1763642037718067,0.006543683970107667,-0.03382396939898091,-0.16263795997977093,-0.5075729238266075,-0.16670440389028485,-0.1529622407625471,-0.2378169813182207,0.11131637443549736,-0.1043545438809471,0.22894062524705078,-0.3048752047746969,-0.40089606364125546,-0.3259151343048909,-0.24880363182176946,-0.1591287384524518,-0.3561253554529541,-0.447530368045505,-0.3328282198846046,-0.22932459195226476,-0.16280020320698313,-0.3344043646183331,-0.2522720378915348,-0.2550003392380429,0.19443206614948114,-0.07013781650182857,-0.20094991312248422,-0.09435832897365119,-0.619960008337482,-0.5482675489058111,-0.29576241946193327,-0.29674763771157564,1
11.925,4.1,1.625,2.175,13.8,11.675,2.2,5.2,718.0,265.0,78.0,122.0,897.0,747.0,119.0,342.0,13.0,16.0,11.0,12.0,18.0,17.0,15.0,17.0,-0.1998404504702035,-0.2234846719598102,-0.2741179721008901,-0.08171231700878988,-0.6638790599136707,-0.4086314845236937,-0.3813855546956469,-0.2221897865551381,0.07978886945047658,-0.06616095871636188,-0.0995947761843772,-0.06118171416005586,-0.3371922351869821,-0.3241846265809473,-0.3733102528391877,-0.32934727754002435,-0.46265879160790513,-0.26805408425860755,-0.3354151112984789,-0.44762206873357396,-0.3622509442173006,-0.25098489828597903,-0.3891049581784529,-0.44920211083044764,-0.2319026442764602,0.04545639389559394,-0.04227008890808974,-0.030896471548185516,-0.4677071330456975,-0.31340643718982436,0.01769669259369909,0.042941865819788774,1
7.325,2.75,2.05,2.7,12.325,12.75,2.075,4.525,413.0,169.0,139.0,166.0,805.0,874.0,114.0,267.0,14.0,12.0,14.0,20.0,17.0,18.0,13.0,11.0,-0.02107203918989682,-0.04251947576420711,-0.15523088909420737,0.27943359471592516,-0.3461517968943037,-0.42370031488259785,-0.03257258610526157,-0.22770288940589592,-0.2908166796524069,-0.10332008466483797,-0.15113398438690978,-0.21408760457821582,-0.43210199624454787,-0.3027712093473322,-0.2631079178346643,-0.17515444274817973,-0.30289739732181903,-0.025015823675711302,-0.13430446922234301,-0.2285382235678188,-0.4392771958576839,-0.4078334305065767,-0.13826519489486455,-0.27503319653644004,-0.24884833980874094,0.18231111506033115,-0.04140380697066753,-0.04877492430002423,-0.20265865981129666,-0.15762887233766687,-0.2333880755083258,0.08471686645879314,1
11.875,2.825,1.85,2.45,17.475,16.575,2.325,5.2,681.0,166.0,115.0,134.0,1066.0,862.0,147.0,317.0,13.0,13.0,13.0,12.0,17.0,13.0,18.0,15.0,-0.0943051748333289,-0.05100410163797816,-0.0670331477040519,-0.18011206078329198,-0.2722069082959484,-0.2495974643839023,-0.12698639394320055,-0.17555349780890994,-0.2848709177359943,0.001231302925027552,-0.11047229745098186,-0.15160226801600438,-0.3064003831843045,-0.27474857548727066,-0.43464520433155923,-0.2748549846371563,-0.5787338130870523,-0.3110538018393202,-0.2079833438503843,-0.04866811575450849,-0.32158712387452226,-0.1419888412035453,-0.2400482368818853,-0.023917344590605877,-0.31231211696035477,-0.06957007621994486,-0.09088224335516883,-0.08795018764268972,-0.2582006717001836,-0.1152471085308436,0.032393074652007005,-0.1813468931731879,1
11.375,3.3,2.35,2.625,21.55,22.2,2.65,6.125,664.0,205.0,107.0,146.0,1405.0,1290.0,170.0,377.0,20.0,13.0,11.0,12.0,19.0,15.0,18.0,16.0,-0.17178967308056697,0.0003999671735134372,-0.3595811455172461,-0.3023482484495483,-0.3558859804810274,-0.14463643460015574,0.0075695417585669176,-0.3038894478277278,0.08858493548422466,-0.4803657618966868,-0.1655476798210398,-0.38441803963780513,-0.2461270375584118,-0.30595544424810756,-0.2545898572692667,-0.4316996890987599,-0.637748405651008,-0.34331467179644937,-0.44467655520939253,-0.3005295987563801,-0.41812840120847694,-0.181295282619026,-0.4528958305364203,-0.30219194686248313,-0.5102797597767909,-0.19465081064270792,-0.41070954689325767,-0.3075568954508281,-0.39562990060699327,-0.2746472844417627,-0.1089647218510234,-0.31301517043812715,1
9.0,3.025,2.55,3.075,15.375,19.5,3.025,4.8,567.0,189.0,138.0,184.0,960.0,1056.0,190.0,295.0,17.0,14.0,14.0,14.0,24.0,14.0,17.0,16.0,-0.35079937269936456,-0.2317983425619247,-0.0739902248739542,-0.1547316830771658,-0.559466439953665,-0.5291713012798018,-0.3741892041632317,-0.37367776514260614,-0.45541952406847247,-0.23524114703231033,-0.21209101197235125,-0.18158281749673247,-0.3636356187576777,-0.2995465891700189,-0.29899231671968757,-0.16100984007739128,-0.32893162366574014,-0.056098368766712654,-0.34630168985199994,-0.33735121124957124,-0.24659201699069028,-0.4227022663557968,-0.3622561415944963,-0.39135137551056876,-0.28903252953984326,0.004615540642812389,0.11817935642922998,0.03805496718142878,-0.4476690776302019,-0.3245887543822249,-0.06352562098876001,-0.20373053697350388,1
8.75,2.35,2.125,3.1,14.0,18.625,3.1,4.75,593.0,154.0,127.0,168.0,997.0,1121.0,193.0,328.0,20.0,14.0,15.0,16.0,17.0,18.0,19.0,20.0,-0.5002823019712885,-0.18276014638949512,-0.2851779272364522,-0.24514908755151762,-0.16477891559460087,0.07892728739003597,-0.07013546457138284,-0.24589658817920154,-0.2701629460166542,-0.15697719460724552,-0.16736399546506556,-0.21821424536312886,-0.20153662203685233,-0.24060824062295302,-0.3098780229308337,-0.15619928696308413,-0.5638013883215793,-0.21882979396234598,-0.30388908084956384,-0.20564185496349707,-0.47887556932456,-0.2948090960688652,-0.4752125740257331,-0.3727146074868208,-0.16411617719546948,-0.026050541331886248,-0.26470709119194763,0.07297966363777356,-0.6269048314262493,-0.449318327076783,-0.10866882552144529,-0.2523753087221952,1
12.4,4.15,2.025,2.425,14.45,15.675,2.15,5.85,813.0,266.0,131.0,153.0,935.0,1029.0,125.0,405.0,19.0,19.0,16.0,18.0,17.0,20.0,13.0,17.0,-0.487727059790266,-0.07551831748768575,-0.04901246953414667,-0.011851770050842075,-0.49599171704654843,-0.31143185427232317,-0.14344735334648367,-0.20630212548891227,-0.2871439320673228,0.032813245877708494,-0.10538777649503114,-0.18169618996297107,-0.36620618126666865,-0.31405676784539466,-0.2353872210173986,-0.16161182168689492,-0.46526643389524314,-0.5688165121128353,-0.26960092537429,-0.35244889332600754,-0.30313615895936985,-0.5411941720968232,-0.17604288725452683,-0.4592000665841713,-0.008952757174177668,-0.21182209980994451,0.048096770230303516,0.11926900447690324,-0.4613307693148848,-0.24668773918121714,-0.1444428794968299,-0.1431512261705881,1
13.8,4.575,2.075,2.9,10.45,12.95,1.775,5.025,855.0,313.0,138.0,187.0,621.0,753.0,109.0,331.0,19.0,17.0,16.0,19.0,15.0,15.0,8.0,18.0,-0.4548787262576091,-0.03498992528157892,-0.10651900756148415,-0.26281017664438944,-0.4910171110764183,-0.571027542904057,-0.2698510800819156,-0.4510268505299328,-0.3902608113083347,-0.22613847681455312,-0.20039675456358996,-0.23580347228641504,-0.487629671499795,-0.4002617523267098,-0.177171227326688,-0.2864564706803991,-0.40692275946727935,-0.38258116419286686,-0.2613887707493553,-0.03679532234055802,-0.3608637473809687,-0.5861168751256628,-0.3948428502954498,-0.21969993815451272,0.023162381226630488,0.03992866914153705,-0.28007176468022055,-0.143380596296205,-0.3342152769027681,-0.023665236310560018,-0.0012625657314369598,-0.13449810221918976,1
10.275,3.6,2.25,2.6,12.725,13.725,2.35,4.7,577.0,236.0,132.0,145.0,798.0,752.0,123.0,302.0,11.0,20.0,14.0,11.0,20.0,14.0,10.0,13.0,-0.259383927068247,-0.04604286721269427,0.09455310296377126,-0.08861561629128455,-0.5701326824888916,-0.2938088642790683,-0.19444482333669824,-0.11729494411802013,-0.29759823955079245,-0.2864202716046356,-0.5315671332239003,-0.2549140511558336,-0.24663846093568514,-0.13495768668335748,-0.404068725432249,-0.016758054937454855,-0.5739360194263635,-0.41366074264988434,-0.42538803316076085,-0.3903250426186404,-0.2402892463418153,-0.25368987238307206,-0.5827965769910965,-0.20795277967273046,-0.055385560392711086,-0.06548432010370277,-0.3785578167543324,-0.2575727517898383,-0.20839997174331734,-0.07687682642825222,-0.22853942281320563,-0.2980968908643099,1
8.275,3.75,1.65,1.65,15.4,17.375,2.45,5.075,529.0,231.0,77.0,84.0,977.0,1087.0,160.0,318.0,24.0,15.0,9.0,13.0,16.0,13.0,17.0,19.0,-0.42437615529070816,0.09373219803857784,-0.1723066880054298,-0.08010927505665907,-0.2859159297178674,-0.28009221268569634,0.03647136617196099,-0.11158102425173265,0.15687335250946025,-0.2807318022115695,-0.08666876704658591,-0.20756999369039086,0.2787779155897679,-0.4532343251834987,-0.0872572869397308,0.08786139350647715,-0.4175498776989398,-0.2837734828095091,-0.4213088215704017,-0.2737039773484083,-0.5101956356019199,-0.47955319276369246,-0.4951480516336936,-0.3507398466486336,-0.4097689687444468,0.07422304062985206,0.22116770141400646,0.0006757951745966987,-0.29692426701360336,-0.17555000210756944,-0.08272866509584773,0.027998847776428564,1
9.3,6.65,1.85,2.4,19.0,21.7,2.225,6.025,634.0,436.0,109.0,144.0,1266.0,1323.0,142.0,364.0,12.0,19.0,8.0,14.0,18.0,15.0,19.0,14.0,-0.23241613909023143,-0.023165740238849517,-0.18798432567352064,-0.3150407692576931,-0.70963110825485,-0.49210296147821914,-0.38261267866349524,-0.34537013899539903,-0.5154214403074986,-0.4726115789829955,-0.32631585447652245,-0.22170770090623818,-0.5551604471008776,-0.6231214668355399,-0.4998128189372158,-0.380146154370098,-0.8486032665028905,-0.8038171713363358,-0.7105466641169055,-0.4567055586703359,-0.7162846854818515,-0.7493574785778625,-0.5939484623763505,-0.2598478288396371,-0.384371406325253,0.001976073304560644,-0.1495109751183242,-0.12302195638949315,-0.11081784411463853,0.012143677329489948,-0.1298304761385859,-0.2808053382891938,1
10.775,4.275,1.775,1.7,16.2,17.65,1.9,5.5,711.0,230.0,103.0,104.0,1126.0,1115.0,90.0,381.0,20.0,16.0,12.0,17.0,21.0,17.0,11.0,15.0,-0.4652683962388229,-0.3259529221688818,-0.2625596182476349,-0.35706332463749924,-0.28091235475383286,-0.21107334381245937,-0.09416205812222482,0.13183709720301515,-0.1722849064758705,0.0029171924053512208,0.09321006274588546,0.05303777659114611,-0.392578324247614,-0.23103987027473685,-0.13289549754560837,-0.3071503313305147,-0.661659628245219,-0.3684510527367893,-0.17258542184170259,-0.07277594959591951,-0.34215690117430436,-0.2902796123819438,-0.13841137374283255,0.0032413127258945724,-0.028364705954580394,-0.25803834274906573,-0.1717952405919097,-0.06315403460655064,-0.6803994526405152,-0.2672431333034265,-0.09508783605912063,-0.12518608206010634,1
13.875,4.55,2.025,1.975,11.05,15.025,2.075,7.25,837.0,298.0,98.0,97.0,712.0,765.0,106.0,462.0,16.0,18.0,8.0,10.0,20.0,14.0,14.0,16.0,-0.3689253986062936,-0.12452696057570714,-0.2187587997287915,-0.27253862273880874,-0.6244578749517172,-0.2871436383485418,-0.42346062849373745,-0.3449972976866367,-0.016455618453149103,-0.21741293959355296,-0.4390401997148183,-0.1620843718641821,-0.0663378370266185,-0.391650902983763,-0.2681849986533213,-0.32084695409936786,-0.1869116736807093,-0.19153143039322118,-0.14071413634129792,-0.4101262748258256,0.08644154251039428,-0.2768045061179248,-0.22338495937258562,-0.3492165953501493,-0.17876970336324996,-0.13922101464834746,-0.0020028771464487513,-0.16620068777779765,-0.4883805107436774,0.05869786045630465,0.019514399863682193,-0.06903954475015482,1
13.875,3.425,2.275,2.275,11.7,17.05,2.0,6.25,825.0,232.0,122.0,134.0,708.0,901.0,124.0,424.0,18.0,18.0,13.0,14.0,14.0,14.0,10.0,18.0,-0.3482970085733989,-0.15464009355700115,-0.021615871144785134,-0.15772302175229444,-0.3716408076657579,0.015713763549649068,0.06854533678885932,-0.21357433021307762,-0.11852636167207774,-0.19469159665134592,-0.22072537132098932,-0.2429869458972538,-0.17629112476863684,-0.35016919403935093,-0.1865477629083845,-0.3711620240754606,-0.32468459311830355,-0.335641483563147,-0.27743135383716067,-0.2247277610069247,-0.02797409964562841,-0.2665588375348557,-0.19000320110891256,-0.26954793451961206,-0.3378324557119301,-0.05898847450412316,-0.20769278692884516,-0.23073023460569386,-0.3388775885701343,-0.18631376759748997,-0.1637910714876421,-0.22928159457401148,1
10.625,4.0,2.375,2.425,11.1,16.475,2.05,7.55,688.0,276.0,145.0,153.0,727.0,975.0,106.0,522.0,19.0,18.0,15.0,18.0,20.0,18.0,12.0,20.0,-0.35305216899796776,-0.14390901656430735,0.19521872690911138,-0.0025459821826173106,-0.7195503983980538,-0.4289896994623714,-0.21152164503075147,-0.15506246246644248,-0.3781920054588227,-0.36476001856950363,-0.3373142629595009,-0.3104367550738312,-0.3799284181102359,0.04916176027895944,-0.012596438464243248,-0.17173660688739334,-0.45884362608896934,-0.3191798826445794,-0.41277844220035026,-0.16711421251510533,-0.19074920504595239,-0.24640573476141228,-0.34658374451842966,-0.220660122483191,-0.02474046258859162,-0.06636238246149831,-0.3368178168785331,-0.25866733005002174,-0.46681932145292837,-0.17594037275919203,0.35539367911521785,0.12650446649783734,1
11.05,3.9,2.15,2.975,14.525,14.675,1.925,4.625,775.0,256.0,115.0,159.0,1020.0,914.0,123.0,304.0,15.0,14.0,14.0,16.0,21.0,20.0,15.0,17.0,-0.41546941687499794,-0.14891649299319737,-0.014279400975869033,0.006544245001815697,-0.5987666873752451,-0.4309840852820666,-0.24499893321761967,-0.1603793635743224,-0.290172336338983,-0.18924984805708767,-0.1547217358921117,-0.0863928669030354,-0.2641176724589722,-0.09350455451742504,-0.2799450951008306,-0.1510292424754449,-0.6766783164227965,-0.3798673827251357,-0.370887370878053,-0.39741507693525463,-0.41254752888318436,-0.3907243748855784,-0.4640365993636479,-0.4126275243474644,-0.16627002501936952,-0.06529426800786255,0.10315132845865058,-0.45562795744112145,-0.27616888450972216,-0.004958583685393651,0.1626422484720513,-0.08906923869098571,1
7.7,2.95,1.875,2.475,15.7,16.4,1.75,5.525,531.0,166.0,88.0,138.0,1023.0,759.0,91.0,377.0,16.0,10.0,6.0,14.0,12.0,9.0,8.0,16.0,-0.23656126443326958,0.31489166410946406,-0.08146532326255018,-0.09712352769243532,-0.11885937352589251,-0.18802849430059757,-0.1994991592024692,0.041425835557362026,0.03324183298943513,-0.12047776780183635,-0.12974600349031412,-0.19286112519035056,-0.14092433668081558,-0.05228661373664094,-0.3765244018214637,-0.19474299731703215,-0.5570752836475921,-0.3430062477268493,-0.41783476045796525,-0.22706106234532575,0.07243698390271942,-0.25790915556862715,-0.18077610897056054,-0.30671123840139886,-0.02361634469891986,0.1698807813455043,-0.07180645005908853,-0.19824968784011066,-0.44447275508013323,-0.022921844140062413,0.23285081748982284,-0.09528347772595118,1
9.525,2.325,1.425,2.225,14.7,13.825,1.8,5.575,633.0,152.0,75.0,130.0,893.0,761.0,103.0,365.0,17.0,14.0,8.0,16.0,19.0,17.0,11.0,17.0,-0.16117265904667336,-0.002268140936582741,0.2449692996526977,-0.1619007313327941,-0.32095479797672527,-0.2747164977829458,-0.22368623650838892,-0.47904624898801745,0.06590549181512433,0.024200523272172897,-0.07075759190511083,-0.3102905876105282,-0.08297410916322799,-0.21278564206625722,-0.1701225903552299,-0.13553038360762415,-0.5738580845767556,-0.46939497600073304,-0.4086748727738315,-0.3986081336233119,-0.3474295365707897,-0.5491982065506773,-0.2984112231808036,-0.46524801747093986,-0.2146900423635116,0.10170244737874296,0.009308836900174625,-0.10632849474515377,-0.2239829554038865,-0.12909893842559167,-0.1316347731721508,-0.08076419896444711,1
10.05,2.675,2.1,2.35,15.425,16.45,1.9,4.625,671.0,182.0,124.0,142.0,1094.0,1138.0,117.0,282.0,16.0,15.0,16.0,14.0,21.0,21.0,14.0,16.0,-0.3274178203794771,-0.10290774410566507,0.1293765156929858,-0.10540300168648167,-0.5707875694711124,-0.321589654571667,-0.2846475129943698,-0.2567464342161379,-0.25358103228876744,-0.1556303276785883,-0.28224649984269784,-0.4786081987126699,-0.28549123963313716,-0.40213581908976787,-0.336799642344623,-0.25063050137676646,-0.7316648516877309,-0.45088037715911666,-0.40798451171117767,-0.38419815799436846,-0.7376872466894712,-0.4587571093706321,-0.4827590623153196,-0.5370755807983478,-0.28309737052826867,0.12673793836183445,0.12790330793986937,-0.02168522386366625,-0.16627210114008165,-0.21408030495364028,0.00139214481615029,-0.03175333017965605,1
8.225,2.3,2.2,2.8,12.175,15.95,2.2,5.9,524.0,144.0,125.0,165.0,824.0,1078.0,153.0,367.0,17.0,17.0,12.0,16.0,18.0,19.0,20.0,17.0,-0.20173654229789906,-0.19269846491555606,0.0009754114776771462,-0.09658399267842017,-0.2044086196445678,-0.17031385891596854,0.24118521546546878,-0.2767192242078296,-0.3278634171034722,-0.08357612688631613,-0.11301974117829253,-0.06823824889202945,-0.47599233871515373,-0.3547782578922367,-0.3637389409405426,-0.2093371426657047,-0.4138055110983968,-0.384241327791494,-0.3804742489078996,-0.19855536910045435,-0.44617767755634274,-0.11628198201045996,-0.27405262734534264,-0.16707478865629732,-0.5603853619015525,-0.09350547190175157,0.13318181119367406,-0.022243970228162237,0.016888979940139413,-0.37182565652433713,0.25604230429355446,-0.4295035227123774,1
12.625,2.95,2.65,3.175,13.675,20.9,1.825,6.675,812.0,166.0,161.0,194.0,826.0,1154.0,105.0,424.0,15.0,14.0,15.0,15.0,18.0,13.0,12.0,17.0,-0.4808750984100115,-0.2650976889923598,0.015025310241979627,-0.2618369345580258,-0.03643947107456091,-0.23029744690288415,-0.03582512169499242,-0.29302556667958224,-0.224656622241308,-0.18438812400771523,0.03573549372697207,-0.3572656968156884,-0.2738232329815437,-0.22829269133206787,0.028218464440676022,-0.3598335160722074,-0.22703485910113505,-0.06644413867421377,0.00021717768753911268,-0.4423063856487632,-0.17804280123007685,-0.04173247784110584,-0.08154630220990615,-0.4538774868897229,-0.22257573123874314,-0.2462695119849762,-0.26401221722238155,-0.26071135258459155,-0.5031910269006337,-0.34708418306201205,-0.31355336282883073,-0.44415615654034984,1
9.575,3.95,2.05,2.825,15.925,19.325,2.15,7.425,596.0,246.0,118.0,167.0,1069.0,1252.0,120.0,485.0,15.0,21.0,13.0,15.0,21.0,20.0,12.0,17.0,-0.1503154734722989,-0.15718052312364686,0.1543562139323711,-0.31130326608068454,-0.41810166390818776,-0.3208676975885765,-0.2724035697152108,-0.2360625650444412,-0.26373139972086784,-0.5133261226884089,-0.22145146465664803,-0.3717635239143429,-0.33854135647798317,-0.5450768623088597,-0.31195588673919084,-0.2931340318547837,-0.7358985407762312,-0.4807551633993399,-0.4831161975291669,-0.3413228372834249,-0.4825377865091368,-0.35168999272681084,-0.4299609785250355,-0.31678098504170377,-0.11374720324263544,0.06439912966989765,-0.36561705262524696,-0.12204325574741696,-0.6002616035506774,-0.3003973816226965,-0.48165822398835456,-0.37218996431981294,1
9.775,3.625,1.75,2.2,13.575,18.025,1.85,6.675,626.0,199.0,92.0,137.0,839.0,1068.0,93.0,386.0,19.0,15.0,10.0,15.0,16.0,16.0,12.0,17.0,-0.22975303951336906,-0.2743479045410331,-0.2472480537707045,-0.5081363553416027,-0.2502301897778517,-0.18921988917283952,-0.2866749550678691,-0.14408925973712589,-0.29779384585772667,-0.3020039623809136,-0.4097409765668462,-0.2833283182001721,-0.36603533955657436,-0.23717213164594558,-0.2763902426296798,-0.3870716789875287,-0.5421812904195112,-0.22371261970893325,-0.3802410040894905,-0.5308292342362853,-0.4862598399638868,-0.3572661858717075,-0.33574651676800293,-0.3801123459099293,-0.18672562031458584,-0.017886321546160978,-0.12259460878387113,-0.22569315408404567,-0.36259574239421644,-0.20250424474429163,-0.5375606424476919,-0.3675336202349998,1
11.0,3.5,2.05,2.65,13.85,19.175,2.1,8.0,738.0,212.0,109.0,155.0,802.0,1099.0,127.0,524.0,14.0,16.0,12.0,11.0,13.0,14.0,10.0,17.0,-0.37577651618671787,-0.26525793046385016,-0.11386654792456365,-0.28758685319953525,-0.2576586027650188,-0.3524780030560132,-0.04132512674110533,-0.433367145831959,-0.22831309401409194,-0.29887338603798685,-0.18123760336509617,-0.5842431343637532,-0.3464459749483254,-0.1964427882339538,-0.34250169413416454,-0.3884452412785278,-0.17725054700751414,-0.29542736785725926,0.05712554936368213,-0.45520194518112755,-0.2499818150144408,-0.2795675444141243,-0.2237275189220071,-0.43511404850486507,-0.33369605022127435,0.08371138417541013,-0.15417170324246304,-0.23534586279532324,-0.7429443153557238,-0.6458436619251681,-0.6241759382380961,-0.4614454806729529,1
9.875,4.675,2.1,2.15,11.775,18.6,1.7,5.825,614.0,296.0,114.0,119.0,635.0,1100.0,107.0,403.0,17.0,20.0,17.0,12.0,13.0,13.0,16.0,19.0,-0.2618273091919595,-0.16650521247497782,-0.12238204955081765,-0.39341218788514043,-0.5353439525017283,-0.3831258701515917,-0.38579078279867,-0.456916795430554,-0.3226839820188094,-0.35607007055995704,-0.4473513745466641,-0.14554328624317628,-0.19843374372248304,-0.3589608096289201,-0.4003981312572335,-0.12073720046446754,-0.06040744224462947,-0.3664943555897092,-0.21773389856338474,-0.317142261832883,-0.16292281335271555,-0.41034204587555884,-0.4158495777019882,-0.32093664864816535,-0.1709008773042307,0.1665887707136885,0.0069314098739277855,-0.1466455169438318,-0.6518168578862732,-0.27331766489837234,-0.5283432882818951,-0.44787889252165247,1
10.15,4.15,1.825,2.15,8.55,11.725,1.975,4.975,651.0,296.0,116.0,138.0,509.0,689.0,96.0,320.0,20.0,19.0,18.0,14.0,18.0,16.0,10.0,17.0,-0.26595343786382014,-0.2085889634096559,-0.0379096642867202,-0.2659720428681317,-0.804479867796329,-0.6058755713644732,-0.4523008865385106,-0.20846641948490474,-0.36167117753758743,-0.06435002040158803,0.09411724359614558,0.05113714444418574,-0.4019018037601456,-0.28899074437607214,-0.14658339441771234,-0.022474135043068742,-0.3932129229630668,-0.3375907374210644,-0.32520999933825195,-0.1522941793108481,-0.10171760829716878,-0.4076914265288797,-0.22486880616645646,-0.1784024166480007,0.12662836650734977,-0.12007897836360117,-0.1689944704930519,0.13694069305220527,-0.21193216922333957,-0.09094048046906923,-0.05196800217881828,-0.08575637983743026,1
