0,1,2,3,4,5,6,7,8,9,10,11,12,13,14,15,16,17,18,19,20,21,22,23,24,25,26,27,28,29,30,31,32,33,34,35,36,37,38,39,40,41,42,43,44,45,46,47,48,49,50,51,52,53,54,55,Gesture
6.95,3.475,2.75,3.4,10.05,24.9,5.35,5.7,366.0,229.0,177.0,210.0,635.0,1704.0,338.0,339.0,13.0,19.0,19.0,18.0,17.0,20.0,14.0,11.0,-0.000722723449938667,-0.19701181797159184,-0.21909062498120188,-0.3153721982858629,-0.26435601551172794,-0.12966631761745254,-0.15559632989456862,-0.09640091446589219,-0.37901184610178806,-0.07521059072349635,-0.11695648972944483,-0.22371511765063612,-0.37020419936444904,-0.22025858280753455,-0.26979297751359266,-0.3420785664251347,-0.5075510240590052,-0.37560632574129693,-0.11572338829906213,-0.12808830265051174,-0.4105665313308149,-0.24471992081006988,-0.1512820662083838,-0.19496496389466286,-0.39320253141370437,-0.3176807433677924,-0.3384068995237827,-0.3316158106597246,-0.178964098033729,-0.21926685558931436,0.03140592969668786,-0.12575038586099138,3
7.7,2.275,2.35,3.325,10.475,21.375,6.875,7.5,519.0,145.0,129.0,209.0,679.0,1426.0,373.0,471.0,17.0,15.0,13.0,18.0,19.0,17.0,15.0,17.0,-0.6003541702961854,-0.16636839203185028,-0.14826074648329324,-0.1542717800289912,-0.23437955825430076,-0.16263572931583392,-0.05485329690136204,0.02177535867394724,-0.059562021521782006,-0.09633624265579001,-0.22720257893956913,-0.040869558965026795,-0.3046759518746702,-0.21604819599504013,-0.2108735522032443,0.03025309849406942,-0.3422801605861226,-0.16983194439725607,-0.3336063159278183,-0.022668826585973197,-0.374735777954,-0.30673948478249574,-0.3302581513673514,-0.4332306102585599,-0.3949778055861818,-0.5031340936032181,-0.3894363385769056,-0.46997951636379703,-0.3050100066790103,-0.12957944950020908,0.07102859019676312,-0.24364034677581722,3
7.675,2.325,2.375,2.725,8.875,22.7,5.8,6.225,535.0,145.0,150.0,194.0,630.0,1450.0,389.0,363.0,18.0,15.0,15.0,19.0,20.0,20.0,20.0,18.0,-0.4348831506300388,-0.34317558564961764,-0.10241070691405701,-0.3440082968218318,-0.29013042504616604,-0.05728401693125323,0.01302211783326319,0.050547335691254476,-0.2482913320096212,-0.12872813292148924,0.08904153173771949,-0.16995132589144987,-0.44038013090231887,-0.3668613175716389,0.09642899967150041,-0.10223942924090898,-0.4577435292033258,-0.12989918858304225,-0.10726499103982341,0.10268223302393309,-0.3599973319740169,-0.37076651336450994,0.1348906729061408,-0.08622632844279172,-0.5730295880897452,-0.6710856961221812,-0.2518949321967258,-0.48442082746926457,-0.24073493813344574,-0.13752587776532227,0.05362851075849998,-0.18777611477840747,3
9.85,3.025,2.8,2.775,12.4,25.775,7.1,7.975,670.0,195.0,175.0,167.0,788.0,1597.0,435.0,433.0,18.0,17.0,17.0,15.0,19.0,15.0,19.0,16.0,-0.4481184239084811,-0.21118287081527412,-0.16429670053871284,-0.361456517357923,-0.5716151861167907,-0.34193954867039766,-0.07783002246412993,-0.043045896077552416,-0.30224906298968895,-0.12404250843019034,-0.01934011028962039,-0.059029467205878136,-0.243988840907815,-0.3920676197887603,0.04159039891934491,-0.2124782898232897,-0.27948083053659545,-0.07294335262918596,0.06799500960934399,-0.048531460335678754,-0.27216344602615095,-0.4236802600137264,0.06313430417022398,-0.14996732874194785,-0.35415728613473685,-0.2298622183448615,0.06652454827675557,-0.22787537790587853,-0.3192009082969548,-0.24656417670758266,-0.38572645636425285,-0.47048380497223935,3
11.975,4.125,3.525,4.225,14.975,35.375,10.25,8.075,826.0,233.0,215.0,229.0,880.0,2125.0,667.0,426.0,22.0,18.0,14.0,12.0,19.0,18.0,20.0,15.0,-0.6461744222464629,-0.4695750079404788,-0.37616859277444986,-0.36630173612467026,-0.18433189059217403,-0.23511143647747848,-0.1375674179075734,-0.23206769769613445,-0.36615153941010464,-0.23751071688200154,0.05225886787464741,0.03874294561946189,-0.14245195109273603,-0.28067287367011434,0.08498286481396239,-0.1703851377971033,-0.3284018131427631,-0.2587388732202769,0.27785167303894065,0.08088608153460615,-0.2844993484548455,-0.279815598406736,-0.008824207174962271,-0.1872849445550627,-0.6244235137510049,-0.5039753956015464,-0.37086176216317895,-0.3951153900483321,-0.22778265531473615,-0.18640524138955417,-0.0905894129052597,-0.0787894787274292,3
10.525,4.3,3.4,4.4,10.225,32.5,9.075,6.775,733.0,303.0,201.0,305.0,669.0,2063.0,554.0,386.0,20.0,19.0,13.0,21.0,20.0,19.0,17.0,12.0,-0.5788999013745392,-0.1825090864422049,-0.5779935101030397,-0.38612160561480563,-0.4161373785387104,0.05090884119492862,-0.4629453476417669,-0.2868307689353386,-0.5466717702822603,-0.6633568067310587,-0.34466897586497963,-0.490345636588403,-0.4463534894025716,-0.20528856406758508,0.09467342353265708,-0.1354880206006179,-0.5249310173152771,-0.33872166007910814,-0.09601721977566369,0.006674238566574864,-0.2724342109008697,-0.2737973723845741,0.24850795129202397,-0.0884504131488825,-0.2826454390796433,-0.4263343412787427,-0.10951207156770768,-0.3961395993590807,-0.18089514389908612,-0.14314607659013862,-0.20501821790269475,0.018091681071163903,3
7.3,3.8,2.725,4.125,11.4,30.875,8.65,7.9,484.0,257.0,155.0,255.0,809.0,2128.0,512.0,526.0,18.0,17.0,13.0,18.0,18.0,24.0,15.0,17.0,-0.6992673428034699,-0.4821774130256288,-0.47460575752928974,-0.35915638376809805,-0.4164725385821365,0.015192998029481946,-0.2604516268243366,-0.2577256296389565,-0.3983937842965838,-0.4369192029553272,-0.24939381884717224,-0.037081235687450115,-0.3096922359345677,-0.2806886887762207,-0.06401225339031913,-0.16821412958701293,-0.5494259342642018,-0.11627530267713497,-0.20470299551917892,-0.05457219608308882,-0.5821136242457831,-0.38263200507926165,-0.3157473846133065,-0.2860703296263878,-0.4436296839935129,-0.39587594475664256,-0.26449340621419876,-0.23691235070955344,-0.6178746435619552,-0.4424436331460967,-0.5067601335474351,-0.27119074076263355,3
8.125,2.85,1.825,2.975,9.7,25.05,7.65,9.15,582.0,173.0,103.0,159.0,624.0,1721.0,430.0,565.0,20.0,12.0,10.0,11.0,18.0,18.0,16.0,16.0,-0.4746146191943027,-0.3150842100399734,-0.10443489680890046,-0.3424066278777162,-0.0708714936531481,-0.12032490779772839,0.08439415153181519,-0.19394614262495186,-0.24620226973818515,-0.2185492403134787,-0.0879887232692414,-0.09273554603192337,-0.14262987034966743,-0.21100755185953554,-0.3079368915846208,-0.13286487232392893,-0.5736126084629096,-0.46319495828825075,-0.4717050422060081,-0.33678556140843335,-0.3871484657828753,-0.281739339592234,-0.16098498808252323,-0.07181219981268425,-0.3913758949546748,-0.16562087456407115,-0.23102486902107242,-0.24985013752906715,-0.4296138629825675,-0.6121937787508946,-0.333608357064365,-0.4973553218189821,3
6.65,3.3,2.875,3.425,9.65,28.725,7.325,7.05,428.0,185.0,160.0,188.0,579.0,1677.0,442.0,441.0,14.0,14.0,14.0,18.0,16.0,16.0,13.0,19.0,-0.26901329328580215,0.018045208965157038,-0.20218551846072352,-0.2478597541994947,-0.10907169166553982,-0.5501524050516912,-0.0032788177866140307,-0.25574952861742956,-0.3700612714265681,-0.5579008376107224,-0.4040235973381037,-0.2608904618467862,-0.03382908273332709,-0.6264987609020298,-0.05495380050680458,-0.23711151687648827,-0.39275809926764216,-0.514363283896833,-0.46485474164123536,-0.2631212158627612,-0.5580000934420135,-0.581764499311991,-0.6657282058436277,-0.3873929869973421,-0.5881162612524324,-0.7488332123709593,-0.5530069618490353,-0.45516473488882725,-0.40395584478389995,-0.4860026211316701,-0.10583636272917868,-0.12292902343410515,3
6.95,3.575,3.8,3.675,10.4,28.375,7.275,8.275,424.0,211.0,226.0,227.0,663.0,1731.0,412.0,569.0,18.0,15.0,12.0,12.0,17.0,19.0,15.0,21.0,-0.09196819743312111,-0.4089964851564666,-0.1439456243340939,-0.3385107665921408,-0.1931195513820027,-0.5479635895278951,-0.13675988622317514,-0.5143585324375546,-0.4172411076286094,-0.5039874211601832,-0.4789757996206753,-0.5163699439368149,-0.4157590881235664,-0.6126250546658444,-0.4686013960628926,-0.5110021617518372,-0.5498408819558334,-0.7794635896858222,-0.3945613880351143,-0.3581832744683672,-0.5084846547046412,-0.4105179209783884,-0.5006833551373183,-0.19312305105928873,-0.34545124648333325,-0.4621069639302579,-0.4846814101729585,-0.4069370584431412,-0.3952441701156696,-0.3132727331725126,-0.04941136059268257,-0.1551460671175635,3
9.175,4.5,3.55,5.175,12.95,43.85,9.6,7.55,575.0,268.0,226.0,326.0,909.0,2920.0,598.0,492.0,17.0,17.0,21.0,23.0,21.0,19.0,20.0,18.0,-0.317319503070535,0.035614926571568666,-0.11111672944314158,-0.09166884404017815,-0.26727427765633943,-0.009852392592671896,0.03531848510578716,-0.11060404581216493,-0.4763609604115943,-0.3525447625390152,-0.32099312916772954,-0.3706043560254799,-0.6337672219584874,-0.46410041986150546,-0.40092411655704746,-0.49273174136965336,-0.7366238948324437,-0.36210610995370257,-0.05863583886579193,-0.029195289790435446,-0.7476901363246283,-0.4045471664132148,-0.35454809282390326,-0.17824231727586953,-0.4826121260987584,-0.1974301165499014,-0.3832229267855928,-0.37176304087305634,-0.34638958107789564,-0.23771334692901544,-0.15000661980091795,-0.13675603075485318,3
9.7,5.025,2.85,4.325,12.925,44.475,10.875,7.55,639.0,322.0,207.0,258.0,890.0,3038.0,689.0,464.0,13.0,18.0,19.0,11.0,17.0,14.0,15.0,16.0,-0.5567885839819167,-0.07849572764793032,-0.03383245858727471,-0.09930266744551997,-0.5684287360941077,-0.10977206727216592,-0.3642816402785049,-0.2621181297459181,-0.34417755619142876,0.2376537482365157,-0.5077780564679739,-0.3467645845815135,-0.340808161585582,0.08059679817799897,-0.15299209405507683,-0.08014846132290572,-0.4116969553964382,0.08000407323757273,0.043675598334879745,-0.02628506138446302,-0.5115498160123527,0.23260839256345442,-0.08284075917205459,-0.3960202526276312,-0.5573528390209791,-0.024906095701194533,-0.24389255077839594,-0.2925791706297154,-0.3512815484362052,-0.19215481479390514,-0.17869098048948098,0.0859621890865891,3
7.875,4.075,2.725,3.5,16.475,33.85,9.425,7.65,492.0,259.0,169.0,200.0,999.0,1917.0,606.0,528.0,18.0,16.0,19.0,15.0,14.0,17.0,21.0,19.0,-0.3675011650308916,-0.20169498145212222,-0.03664817653882549,-0.1404208007721705,-0.4774232222505415,-0.3227329056277965,-0.16440595545462303,-0.34157485011210825,-0.3929170036419046,-0.30257100112545643,-0.22189932362060708,-0.2571030848805216,-0.1732581195668693,-0.13960519034940116,-0.06012986916022153,-0.11358542249700318,-0.4284545355041068,-0.27318564148662133,-0.2391107570157481,-0.10687548352757617,-0.39349068942080984,-0.09201534684634531,-0.061201497798604156,-0.13369518046235274,-0.41562010235027363,-0.08007804689545964,0.10021398470150139,-0.2723350400281661,-0.9117822998742139,-0.7778950705796555,-0.3960349644873011,-0.31012850309051365,3
8.6,3.725,3.45,3.25,13.2,41.65,9.975,7.175,553.0,230.0,196.0,206.0,854.0,2941.0,702.0,481.0,17.0,15.0,11.0,11.0,22.0,20.0,22.0,19.0,-0.6323877772042255,-0.19971111735877473,-0.19358345096639243,-0.1742912470852481,-0.4161340449125337,-0.23036751247519174,-0.2970551195986336,-0.38075346008900807,-0.1825812336068864,-0.23973949155882657,-0.1777904540989802,-0.0630098360349919,-0.260653177714581,-0.10822264991688604,-0.09463055206933985,-0.24030280725183045,-0.5649367283162045,-0.3015159704607595,-0.13055398108764105,-0.16534020145444855,-0.5582603895771123,-0.20757768881027416,-0.3084758270935398,-0.3705802163830654,-0.5813902566081341,-0.23288819870066263,-0.23708830309614784,-0.16628883527729205,-0.5040246028558982,-0.26544721692933965,-0.19937404978531104,-0.1225288347757218,3
7.875,2.75,3.175,3.575,13.325,37.875,8.5,8.35,495.0,162.0,172.0,222.0,831.0,2281.0,491.0,535.0,17.0,13.0,12.0,11.0,13.0,13.0,10.0,20.0,-0.4233296201924127,-0.17743690035684662,-0.02517690788337626,-0.17381331844420816,-0.14153247798015395,-0.010354387815251729,-0.1711769315397851,-0.1595960288497292,-0.16369257503159498,0.027660834413304573,-0.24314412920843806,-0.2709286602184821,-0.37458717932992075,-0.12402988181446914,-0.2079062186591067,-0.34523917568266604,-0.365827359457354,-0.36539270366847887,-0.2106733165398306,-0.47654907348800557,-0.19755863926979983,-0.11133035732135316,-0.3096659546787547,-0.2732350253200588,-0.15797029647291216,-0.057899827139651465,-0.41252761896416895,-0.1641039468301441,-0.3443667101113168,-0.05521375687250482,-0.07016546139548875,-0.22064265314253995,3
10.05,2.825,2.325,3.2,10.325,33.4,8.075,6.675,724.0,205.0,135.0,189.0,688.0,2249.0,541.0,420.0,24.0,21.0,15.0,16.0,20.0,20.0,18.0,16.0,-0.8520268631078867,-0.3017123526348408,-0.07164259142850883,-0.17358028115141103,-0.48868828561963285,0.06861871710993266,-0.2731369529225971,-0.5084196378276762,-0.3920779550221997,-0.2885492427785181,-0.225837519236224,-0.3827484480200099,-0.20543071650753025,-0.13189239135016395,-0.07818202906508127,-0.34690380923598035,-0.36543938854817487,-0.13990604242983382,-0.15088174546066938,-0.18616678521109234,-0.5202944887623281,-0.4032401851486591,-0.35948587264556614,-0.3804231041627796,-0.4527096493206625,-0.438305343606995,-0.21581089474587084,-0.29434439991732514,-0.21226980869334924,-0.15847740845376307,0.14130841134896946,-0.15078751368417195,3
9.3,2.6,1.725,2.825,10.125,28.55,6.9,7.025,617.0,165.0,91.0,183.0,712.0,1847.0,412.0,466.0,17.0,13.0,12.0,18.0,19.0,16.0,13.0,19.0,-0.6742065414332404,-0.48758924877724513,-0.35178421711884383,-0.2127235743195313,-0.3239645111319373,-0.11082625892713845,-0.2966691631807602,-0.38853240427873786,-0.17100229868643735,-0.1973456623108821,-0.41533611745213705,-0.13452691254926472,-0.4296784602508821,-0.4389953576490621,-0.05874056826087333,-0.047355982090114324,-0.8919173814036714,-0.5351567859144761,0.0919407132953287,0.08032863158884657,-0.4630865997821126,-0.4011894963496637,-0.03918078980397888,-0.09021877460579486,-0.28344512462794863,-0.06477690912052608,0.056318098433534025,-0.15098512852855167,-0.41879666300572177,-0.2559237238721234,0.019308498728183444,-0.03147735816380475,3
9.8,2.775,2.725,3.625,11.675,31.875,8.075,8.675,649.0,165.0,150.0,224.0,775.0,1954.0,568.0,571.0,21.0,15.0,14.0,15.0,16.0,18.0,20.0,21.0,-0.2826558936881518,-0.12365368640587888,-0.03075864198008881,-0.41743046458041816,-0.2695025575591228,-0.6532994375110431,-0.14889846318313466,-0.48855875108903124,-0.185060287831366,-0.29766652289896617,0.14122940232562534,-0.22813083896829348,-0.1669141625563547,-0.1559396821762998,0.08375726073554104,-0.36287774825050517,-0.6694166834608999,-0.6274720725613973,-0.2854902188321811,-0.3263393395038695,-0.1935765505798415,-0.17832862382937878,0.23242931239020959,0.12742940417230636,-0.441733397610775,-0.32954882370751587,-0.048113675344741105,0.006606323720887644,-0.42170315310633777,-0.33284820624173406,-0.10926184184105354,-0.05303621925233177,3
10.525,3.15,3.175,3.45,11.225,28.775,6.725,7.275,712.0,202.0,180.0,211.0,744.0,1833.0,437.0,451.0,14.0,15.0,13.0,14.0,21.0,18.0,15.0,16.0,-0.5169906555744349,-0.1805773695508737,-0.18454763696676094,-0.08806414229726826,-0.5800038847116336,-0.5933219719563958,-0.4037514755501234,-0.3879171697099685,-0.16888418203216743,-0.10594314781252429,-0.1388448583387996,-0.26458300227014514,-0.18678640151918108,-0.12211397969831135,0.02176745249831583,-0.33336483568167136,-0.5403810183336876,-0.36282294226730477,-0.21889378690923247,-0.21468497675376125,-0.1493137000004692,-0.22706141667444232,0.09393766736672546,-0.34829671209061247,-0.22995351344285403,-0.0513801598648844,-0.13447990989148512,-0.46049729406513557,-0.2891476616721471,0.21207241830019374,-0.2455623681006305,-0.3561783061530974,3
7.2,3.425,3.1,3.825,11.325,29.2,8.125,8.45,412.0,197.0,169.0,231.0,693.0,1667.0,443.0,548.0,13.0,13.0,15.0,17.0,20.0,12.0,13.0,14.0,-0.5676373582384363,-0.42155255745988923,-0.37326317820807176,-0.24865958010969022,-0.4372845564262768,-0.2264887767789493,-0.6626902954638304,-0.4053942870640657,-0.29689216361907567,-0.21381217118488682,-0.43847906517641966,-0.223317515135376,-0.2856368096338761,-0.30676900639561666,-0.16886821237013788,-0.31881621403475086,-0.2842783340088624,0.046542240666025796,-0.029912383488679688,-0.09062814223844542,-0.03385844452580855,-0.22737464091291765,0.049413440784281865,-0.2306363490592118,-0.18560427056449905,-0.3229128903021239,-0.2792855301962257,-0.5131642809393289,-0.25942174020928216,-0.3741674226343701,-0.21430329634826345,-0.4930010042939749,3
8.2,2.725,2.925,3.9,13.1,24.525,7.525,7.525,520.0,139.0,164.0,242.0,901.0,1397.0,384.0,439.0,14.0,13.0,13.0,18.0,20.0,14.0,14.0,14.0,-0.16809324822828164,-0.09829908520813277,-0.05842486159457566,-0.30308519701456077,-0.004573441533531571,-0.41019479054608554,-0.29522877474707143,-0.31921481397379664,-0.30612317284516516,-0.3126199364501324,-0.3158759194303525,-0.4750758137090334,-0.31041123198110265,-0.2227809926832473,-0.2440305215551619,-0.4595487806650426,-0.6733516792570304,-0.2659632444373043,-0.13701877369186538,-0.237018368331267,-0.15363453277494107,-0.25410446430235334,-0.22391421310311535,-0.21949296244715266,-0.21780810154264119,-0.6054971387883278,-0.3429617136987806,-0.40940492720658317,-0.11726971044117332,-0.3055458154098903,-0.13117173899327197,-0.31191284170224776,3
8.775,2.55,2.775,3.0,14.725,23.4,4.975,6.6,553.0,138.0,156.0,175.0,929.0,1312.0,325.0,430.0,19.0,12.0,16.0,17.0,21.0,15.0,17.0,20.0,-0.22409364992047087,-0.06820472691627737,-0.05782979467923521,-0.08550918185682159,-0.2162069597619934,-0.15391776767355117,-0.16554011873190838,-0.21871871049785882,-0.3615891446685629,-0.3076775838295656,-0.28340024275400333,-0.28199083192668856,-0.2715411090152124,-0.49120960318560886,-0.33790375019841223,-0.21948839199219494,-0.6259273227654722,-0.3415459416403708,-0.33279772813001907,-0.023339007013992493,-0.05300062459803228,-0.29032200107139416,-0.08856310375108735,0.07359745224880818,-0.2600049445507078,-0.42047270498058426,4.386307318796875e-05,-0.1958829300300082,-0.24655782782369223,-0.2636900452053103,0.09012362545696696,-0.11490606679331407,3
7.9,2.375,2.15,3.2,12.2,26.325,6.525,8.3,517.0,122.0,121.0,213.0,909.0,1707.0,410.0,501.0,18.0,14.0,13.0,21.0,23.0,25.0,17.0,14.0,-0.28245815853851236,-0.25712285992676037,0.024347040766322468,-0.2721502821608525,-0.13272304308027597,-0.21256456518000302,-0.10297418382492514,-0.1528719469477019,0.04961624030388775,0.21475574043059367,-0.27247479001644975,0.053090113666051666,-0.48024234609527283,-0.21363889095565378,-0.2939281718589749,-0.2792786949659995,-0.8565665730494347,-0.3355219247444426,-0.3700092078989466,-0.027009844457326383,-0.5041897572800513,-0.19143621167640565,0.002419713852195889,0.09650703020746747,-0.2356212873823675,-0.46987736821634757,-0.030849364102044224,-0.4167274658514724,-0.23237842796344405,-0.3739224113437809,-0.08498007052441257,-0.3630485048766348,3
7.775,2.175,2.325,2.825,10.4,28.675,7.3,8.225,535.0,133.0,148.0,177.0,658.0,1645.0,476.0,524.0,13.0,17.0,17.0,15.0,13.0,13.0,16.0,20.0,-0.366375097654165,-0.2492274030682875,-0.2705444976133008,-0.4739352678578709,-0.40259782739575883,-0.380626290418468,-0.2254531230307005,-0.1638117560079642,-0.4151817514659597,-0.32906099536246874,-0.24921104106275532,-0.1631526774525702,-0.3269651090697241,-0.31916005219528093,-0.2715145962254036,0.11945059145360554,-0.45589934330236226,-0.20144455460416472,-0.6209662517329597,-0.31920433182235075,-0.28935312554662035,-0.24604917641585344,-0.5200317794742341,-0.12175226628560447,-0.3075878813083002,-0.1538850882783087,-0.18605062596663932,-0.26178371190378885,-0.4111212021772968,-0.18864674037034315,0.12256654385332447,-0.2078405569727395,3
6.75,2.7,2.575,2.575,12.05,23.65,6.55,5.975,458.0,172.0,154.0,154.0,803.0,1511.0,376.0,413.0,18.0,21.0,18.0,12.0,19.0,18.0,11.0,18.0,-0.49022870983802413,-0.39320224475357907,-0.2632789497172879,-0.36032204482929897,-0.586237742696687,-0.38897431418483197,-0.11319218417540247,-0.1782012138123881,-0.4251470238082065,-0.3170350585207287,-0.3136150580745628,-0.4084919510205345,-0.4070098320275398,-0.40124746092816804,-0.3174970351199411,-0.3513393760259782,-0.5150770478325709,-0.46223731700168913,-0.2535197283064709,-0.41558243419882845,-0.2300649563996933,-0.07008727622296877,-0.08953101051863088,-0.11492962473601727,-0.21689042661662802,-0.22557062128001729,-0.08785492949225905,-0.13582832544373638,-0.7000527712900948,-0.7122269387929826,-0.31556027383290003,-0.3045793285691556,3
5.5,2.65,2.4,2.9,10.875,22.9,7.075,6.525,369.0,157.0,144.0,168.0,734.0,1599.0,432.0,415.0,18.0,15.0,11.0,13.0,24.0,17.0,17.0,17.0,-0.4050469297833107,-0.17375878803839256,-0.06609387048382276,-0.16999033275121692,-0.4133448455269296,-0.2783188061847553,-0.2056930677244525,-0.042146557315782214,-0.3805227004691086,-0.10536469400450969,-0.16836550490096114,-0.3026620498904737,-0.18567329850662992,-0.25114964535631673,-0.18823673576952293,-0.19218690542005604,-0.6024561890754833,-0.321270622729831,-0.32146288729130246,-0.08617879754861064,-0.3110251115114266,-0.0009122098499239392,-0.14502725802891736,-0.41066520242243637,-0.6702860897236179,-0.3457607400465536,-0.5067554825772498,-0.5092413249495427,-0.5325910341678711,-0.19081101153032978,-0.013015787779952633,-0.09481712030868339,3
7.1,2.6,2.725,3.05,7.9,20.5,6.1,7.15,460.0,152.0,171.0,185.0,513.0,1297.0,357.0,443.0,17.0,16.0,20.0,16.0,18.0,13.0,15.0,17.0,-0.5127752937990787,-0.287381628419343,-0.04598138373126476,-0.030653193681277856,-0.31239021350155155,-0.2539931010536538,-0.1605831959320733,-0.05010367165925583,-0.2993821219605756,-0.06006711091045334,-0.08899364667176989,-0.1756698297549348,-0.14593542352358455,0.07779935657415485,-0.1929259867303771,-0.14600795207783185,-0.5677202606392066,-0.3364452614965355,-0.38365789875672524,-0.1639803040215741,-0.4070863274210509,-0.47725255889009305,-0.30308984384399723,-0.27784358536842063,-0.3614745762958818,-0.14563972556060817,-0.1166318856106809,-0.1056824332592027,-0.13172040194638052,0.23095130509680156,0.3077042806373494,-0.2522583875055532,3
6.6,2.275,2.325,2.35,10.55,23.975,6.425,6.425,390.0,125.0,129.0,133.0,656.0,1516.0,444.0,440.0,18.0,13.0,16.0,11.0,15.0,20.0,22.0,17.0,-0.2920685468300695,-0.2899219987633603,-0.02113814556024701,-0.10544183762925981,-0.11985075874896436,-0.6003212151351237,-0.19768439117864403,-0.1995207938454826,-0.051149496642846695,-0.47735002702146306,-0.16628375413060564,-0.13241306343686665,-0.25747894046121583,-0.4856426334690272,-0.11386809800827623,-0.15153368654394211,-0.43399689734228775,-0.48323823285359163,-0.39883151129554417,-0.4421126201880713,-0.41416619110424807,-0.14733673890380716,-0.0833143884812472,-0.04539873709121385,-0.5725449634524545,-0.4238641700056368,-0.2162088285346125,-0.1496019188531771,-0.5230581587895541,-0.363357569366045,-0.3299661576079064,-0.2512850645132211,3
7.6,2.2,2.35,2.525,11.5,22.85,6.7,7.4,481.0,122.0,143.0,127.0,802.0,1512.0,439.0,530.0,18.0,12.0,16.0,12.0,21.0,14.0,16.0,25.0,-0.30114350432350245,0.04018023121531925,0.15736052767007064,0.028941255551390724,-0.23235052934877284,-0.5272488443710085,-0.22710805264498596,-0.137569755593171,-0.4552366264326232,-0.49461884660361866,-0.2614061058844422,-0.2631430268573906,-0.12577490866820523,-0.4973591914958683,-0.20933566775193643,-0.4560526276047517,-0.723039735093742,-0.6022013861034632,-0.33387566819766396,-0.2810811553044726,-0.4322588249404507,-0.2275972625899674,-0.33159821185451116,-0.3468990113213399,-0.46526735759215637,-0.36476526108945,-0.38845377051066776,-0.22976902395591633,-0.463074618739634,-0.08824010187719417,-0.3017068467235039,-0.3078940183232209,3
6.475,2.425,2.725,3.4,10.675,29.175,7.375,6.75,441.0,146.0,172.0,200.0,645.0,1820.0,493.0,366.0,17.0,17.0,16.0,16.0,15.0,18.0,17.0,16.0,-0.34890749796303394,0.010948863631546641,0.006160063132760143,-0.1452664703530947,-0.41086982160472724,-0.308036640997331,-0.20187607307643654,0.13396263635360184,-0.3356855595839351,-0.2496879219127561,-0.46730887804275406,-0.12077982955101224,-0.3965725666356485,-0.39348806743633863,-0.38854711591286,-0.15844410756919813,-0.30483645388986425,-0.26603461847637677,-0.24463513099571027,-0.27057283512051805,-0.4037924650707297,-0.3655579301699065,0.0027288246030722817,-0.1956323029430871,-0.5041955851176899,-0.2437846698131398,-0.2267030372635212,-0.23307972415645958,-0.03923656151743528,-0.21230789022027013,0.09500460667943876,-0.3213878940533184,3
5.425,2.55,2.275,2.525,10.125,27.925,7.7,7.4,296.0,152.0,134.0,141.0,701.0,1896.0,547.0,478.0,11.0,16.0,14.0,9.0,23.0,21.0,20.0,16.0,-0.019235134424822515,-0.14455915697626892,0.18949234502127518,-0.04228555246550371,-0.3864106017477335,-0.370403245580099,-0.09343136711823793,-0.11773207245467401,-0.09198567465210225,-0.03018244766497394,-0.2512427352234592,-0.13617664175511404,-0.24537746123648418,-0.13644475519577276,-0.18330261228515551,-0.04380129840280904,-0.676462276031157,-0.5908175304304808,-0.3305143763456129,-0.33121691265921666,-0.6887186434900628,-0.4613775809926499,-0.41133137014096965,-0.3166441927249997,-0.7037663977501742,-0.3353879380291951,-0.33333515821823767,-0.24528502460493265,-0.2794681382506256,-0.4264998835859564,-0.10519734282942465,-0.30710998810098056,3
7.2,2.475,2.575,3.625,8.15,26.75,7.1,4.55,391.0,141.0,144.0,221.0,535.0,1847.0,429.0,256.0,14.0,10.0,12.0,16.0,14.0,21.0,15.0,10.0,0.08309396520300864,-0.29753024558025337,-0.15735876881655264,-0.16719101233428998,-0.465180864749139,-0.6037232272683901,-0.2122748449550736,-0.36357805754274547,-0.0785032583972879,-0.3472219243641921,0.01092238099156397,-0.2949599425095227,-0.3468282225691603,-0.12539793763445028,-0.21134190721990692,-0.13569060452347728,-0.47048600210829716,-0.23822340253999674,0.06789051855295201,-0.1324281385204531,-0.6530913653836827,-0.5984145394416679,-0.18390459978667112,-0.33693566644674766,-0.4221122440812809,-0.23568848033316245,-0.29466803113410556,-0.4509699877536105,-0.020962004251042058,-0.09620724014620609,-0.3377790934332786,-0.16010410653372487,3
6.25,2.25,2.125,2.275,11.5,22.475,5.375,5.375,393.0,144.0,116.0,144.0,783.0,1572.0,311.0,367.0,17.0,20.0,12.0,12.0,22.0,19.0,14.0,21.0,-0.2041324853481885,-0.1792691431675584,0.09679531331596884,-0.04357228819038753,-0.4186777306457617,-0.23423004720024287,-0.2163556980596291,-0.26008309708143984,-0.15034149700140612,-0.22807231460802152,-0.34920822926401235,-0.22192221486693203,-0.37440399401225366,-0.20866263228793763,-0.19703703003567993,-0.304977811363403,-0.540540785356668,-0.14596542493255843,-0.393777592318377,-0.25550280213221543,-0.39991765274056035,-0.0882256178915789,-0.1169439367165013,-0.06560306931320994,-0.25057640561955224,-0.22946247882326548,-0.4053631652907286,-0.18363693178327245,-0.4950637993608438,-0.3272292224623232,-0.2211303295940093,-0.2354042761774304,3
6.275,2.95,2.2,2.0,11.55,22.375,4.975,6.5,383.0,201.0,121.0,114.0,714.0,1413.0,317.0,424.0,17.0,21.0,14.0,12.0,19.0,18.0,21.0,16.0,-0.19468853571969894,-0.13985441612030453,-0.13731376481926733,-0.05415691984667791,-0.5597219469785807,-0.2781315806793152,-0.10515951365782789,0.023996887174222156,-0.17158403279745077,-0.14983306417137265,-0.2749538306812199,-0.05805900949453081,-0.08707755231690482,-0.30396984672330085,-0.24021674790971742,-0.11613634490354899,-0.5014741663183448,-0.36880290268990085,-0.17749468502231752,-0.263713629954417,-0.22252247537291234,-0.03848849149424578,0.1910873655379032,-0.05931443102187692,-0.6210521593747533,-0.3732757954724696,-0.5474013595065758,-0.34393835945965545,-0.32048873992328053,-0.07824936612538654,-0.24837333205842554,-0.3019834509945977,3
7.25,2.425,2.225,2.8,9.375,26.45,5.25,7.15,465.0,155.0,125.0,173.0,508.0,1524.0,335.0,464.0,17.0,15.0,15.0,14.0,19.0,20.0,16.0,17.0,-0.44786213333455627,-0.2588243669912221,-0.13214714580885792,-0.11259818353612186,-0.5776769859232526,-0.28981719336933165,-0.33731667521891273,-0.30491488100889447,-0.36793898663435665,-0.03246242461431969,-0.10107645116500498,-0.26145697452558475,-0.38291521902823794,-0.19341551116951589,-0.2178850164294267,-0.12023464333268682,-0.03013767654121004,-0.24094634105098794,-0.056863092770615714,0.24640405072031749,-0.22512002525976244,-0.12191364633924322,0.10017634815522353,0.26917926637873796,-0.2518402454285662,0.10510749912145409,-0.13012506548789537,-0.06515445988288937,-0.5530864819654214,-0.2655280744626943,-0.1245965101586347,-0.07005568727576413,3
7.15,1.8,1.75,2.5,13.675,25.925,5.85,7.725,450.0,111.0,91.0,169.0,908.0,1661.0,363.0,484.0,17.0,14.0,11.0,18.0,20.0,18.0,15.0,18.0,-0.23434650728608306,-0.24463868258462995,-0.015950958675702457,-0.2428172427504108,-0.258559534122373,-0.14508242285687842,-0.15510335950267445,-0.04051204367507217,-0.17550446385776433,-0.001802125233866693,-0.24450327884385453,-0.17041588303542612,-0.4200289469051434,0.11164815554469823,-0.01521248686934081,-0.2691923087003333,-0.8350303577375442,-0.5575905906943851,-0.30508481229569734,-0.08394120556341479,-0.4136837821830926,-0.20718430056310827,-0.08151659993180968,-0.0232814795595752,-0.44326199955690787,-0.22183336732634948,-0.1726718901010883,-0.024530169585941255,-0.6403580089012025,-0.5330306915173054,-0.20083451052410772,-0.21562941196323318,3
6.175,2.025,1.975,2.875,13.375,25.175,4.625,8.475,396.0,114.0,113.0,180.0,889.0,1631.0,260.0,566.0,15.0,12.0,15.0,11.0,21.0,16.0,17.0,23.0,-0.06170481448046292,0.058578457837873535,0.11528924373742148,0.014201754650250966,0.04281554913635984,-0.2587225267260123,0.2966676458213492,0.004270488254684087,-0.09109463949309858,-0.21828227128447836,0.0882199736331166,-0.0037012824641784532,-0.29957422160365965,0.096213637953517,-0.05383269241887248,-0.36370266992494915,-0.407729412659232,-0.2862054086341027,-0.1729206688401177,-0.4062269114995812,-0.38686305968749196,-0.3359258805514292,-0.12848568789232728,-0.40332330360136476,-0.12360691175911927,-0.4233362180218205,0.0723044145315118,-0.03360057764217905,-0.4459894874466212,-0.22225658932189016,0.1735456710158252,-0.07960080281001325,3
7.0,3.65,2.875,3.15,9.675,27.85,7.625,6.525,475.0,213.0,141.0,177.0,595.0,1761.0,476.0,342.0,23.0,15.0,11.0,13.0,21.0,18.0,12.0,11.0,-0.224644817277863,0.2689102671414357,0.10681249107424014,-0.06994393813095312,-0.1849169076695739,-0.06614403311149457,-0.33696898809627834,0.015775019632425166,0.02326473414929192,-0.029533152628985416,-0.3627880974173596,-0.10331028255699898,-0.01469386487549492,-0.18457116058005038,-0.19421645306356208,-0.19765358162623523,-0.5009090340110044,-0.3745850217847952,-0.12811345805647048,-0.25097920224485115,-0.3564338196168369,-0.3801011778076994,-0.2519700369639214,-0.5604848898770917,-0.3290795447619739,-0.30575148935064306,-0.3391456318148879,-0.48968524199828256,-0.03567850941139357,-0.15145955954288276,-0.12647214537222567,-0.47481466011563367,3
8.6,3.825,2.55,2.625,11.925,27.45,7.525,7.3,564.0,234.0,148.0,146.0,816.0,1802.0,486.0,421.0,17.0,14.0,15.0,15.0,19.0,20.0,14.0,15.0,-0.2540247108397219,-0.09760955495823316,-0.2236518966398879,-0.009297482417469105,-0.4244581064093569,-0.2839900880363206,-0.30078215464329594,-0.035694897615741475,0.002462336092618376,-0.26810397436309225,-0.04764422266853729,-0.2741016817200213,0.18341759743382166,-0.21019906350587006,0.22052898056386855,-0.44576102644737164,-0.5663471989302515,-0.3549696248324359,-0.27415649205503445,-0.5005951099840631,-0.43535861195031056,-0.21256451996339648,-0.15217479179755214,-0.12787621428110524,-0.20068837069104067,-0.22638468635201256,-0.1693647788354188,-0.325826820930233,-0.3319263158548508,-0.6207175280147142,-0.35738816626346,-0.5450614837275528,3
7.025,2.85,2.35,3.5,10.3,22.825,6.7,6.975,467.0,146.0,146.0,197.0,726.0,1363.0,378.0,398.0,21.0,18.0,14.0,17.0,21.0,16.0,12.0,13.0,-0.4956826993036343,-0.12842563575508373,-0.25662392981730375,-0.031171857436536266,-0.10454633338389076,0.0412713522446282,-0.18679817248497427,-0.07602669309622309,-0.2532483708807386,-0.17085147925161345,0.0467997140331467,-0.19861894625620788,-0.17712209818148605,-0.12708969776076204,-0.10272090453683098,-0.17325136529887422,-0.6956822116521914,-0.4891490073974989,-0.0855934752786472,-0.16339870282604696,-0.21173628296802202,-0.10350498643067337,0.007803036435441767,0.03953720804079655,-0.06432959606418116,-0.10016253589391745,-0.2645150220570993,-0.189043332835225,-0.0698459053310782,-0.15146771584451918,-0.12484800045158889,-0.14745716706324774,3
6.775,2.6,2.825,3.475,11.65,26.675,8.05,6.925,470.0,151.0,185.0,219.0,645.0,1763.0,508.0,393.0,18.0,13.0,13.0,18.0,14.0,18.0,18.0,14.0,-0.25445289601612237,-0.08691292193453476,-0.3731153118631201,0.06908827248688132,-0.22115884859502466,0.3009043510269734,-0.20035141208781562,-0.23209507535545865,-0.4060386428820346,-0.03429997624601765,-0.2592860936441695,-0.1398554019440358,-0.3349844558705354,0.02173011283950817,-0.17370393111646282,0.008171620380315377,-0.17768265842266776,-0.452419247967191,-0.1284114017881216,-0.3179548538361512,-0.22639726899718732,-0.012090603830162272,-0.08835247152650277,0.29452629828786636,-0.3151789912283294,-0.18264742901308778,-0.27790877532301683,0.13281762127452643,-0.018973702244326412,-0.2579630475293055,-0.04845208997461331,-0.058298946617848506,3
7.6,2.625,2.95,3.6,10.85,26.225,7.5,6.625,492.0,181.0,185.0,245.0,695.0,1714.0,479.0,435.0,17.0,14.0,15.0,19.0,16.0,20.0,16.0,18.0,-0.3385720576598782,-0.40168322137392454,-0.13007982705412227,-0.09454891163144441,-0.40294839024225626,0.09816930959045002,-0.3194090866415147,-0.1765979345998121,-0.3868865440496928,-0.11520229253416601,-0.2741052858868637,-0.017810265811473644,-0.6581030247703884,-0.36857854012292823,-0.526013440363465,-0.16463693744264435,-0.28399578727995056,-0.2693601718879604,0.018086392747067217,-0.1782145308026579,-0.32250985798307324,-0.21814185440164807,-0.08643271658756767,-0.09444657723287418,-0.504652603213532,-0.2068615503478994,-0.28499691055565624,-0.13617775036801144,-0.398862739428183,-0.44523817017961564,0.011200676085341225,-0.041011603863862274,3
6.7,2.2,2.5,3.525,10.575,23.825,6.275,6.8,458.0,140.0,125.0,210.0,644.0,1654.0,379.0,451.0,16.0,14.0,11.0,17.0,17.0,21.0,17.0,19.0,-0.41406337259488135,-0.37576099160832555,0.05411507670509604,-0.04262900285313447,-0.3052534994650489,-0.22666988659111872,0.037498817181894316,0.2841619319146793,-0.10335978147701631,-0.3059556835153892,-0.11190489228897621,0.13078695029290802,-0.48616584535187246,-0.23323772335407283,-0.2478742462118629,-0.1879334719124236,-0.5293759516806701,-0.70031783214762,-0.39470476857195713,-0.29392362352442086,-0.3589835521177485,-0.21626418052614707,-0.009639367665792728,-0.29105291670245437,-0.5135337595139033,-0.37363485910458233,-0.27618735225019697,-0.29487088087201113,-0.2818686458687807,-0.21986616509240609,0.1459116616175481,-0.26299453007980145,3
8.225,2.45,2.125,2.9,9.925,20.975,4.625,7.225,530.0,156.0,127.0,179.0,653.0,1339.0,297.0,455.0,16.0,17.0,17.0,17.0,22.0,15.0,15.0,15.0,-0.2502231798983014,0.030363621239412695,-0.0955648248888694,-0.18976582528150338,-0.3909150763339931,-0.12771599264922512,0.24774981533576768,0.11696261292666012,-0.2500739681776256,0.055313513058476226,-0.004504136902039047,0.08290726470177197,-0.2685904549148438,-0.001266136376391758,-0.29130363685547195,0.030348942285395947,-0.65351040458361,-0.21936927641694579,-0.43105626940341,-0.35962506098737496,-0.4009643832963468,-0.3488229192855504,-0.37704298615299503,-0.2454403240664198,-0.2761533513076363,-0.072079006490103,0.1340912636965462,-0.20677916718090028,-0.2934246491673396,0.1860302096547271,-0.2732993170520063,-0.2869408698747247,3
9.425,2.55,2.25,2.525,10.075,20.15,7.1,8.45,551.0,151.0,131.0,157.0,721.0,1270.0,412.0,488.0,11.0,16.0,14.0,11.0,21.0,18.0,12.0,17.0,-0.15239506995843288,-0.019874992152889497,-0.30907736209847775,-0.2458855854592385,-0.24095992107511247,-0.01243516749785038,0.08752677758530437,-0.10050321242597794,-0.26967857664930306,0.06208288928586216,0.03550560110293215,-0.1768179971313008,-0.24769871278487093,-0.07130175885222877,-0.3358898163385448,-0.27098908966184926,-0.6219765155278061,-0.2916407164824673,-0.26528094759508336,0.01650478886571383,-0.3532307701688153,0.13935098365695822,-0.15950043474560605,-0.09951077396950092,-0.288562187724143,-0.3000600687620443,-0.35783525347201556,-0.47856314941091926,-0.253274602330999,-0.46884998814688855,-0.420557455029443,-0.4163750515311575,3
6.025,2.5,2.075,1.925,8.55,20.275,7.5,7.225,375.0,160.0,126.0,126.0,575.0,1280.0,465.0,482.0,18.0,16.0,12.0,11.0,17.0,20.0,17.0,18.0,-0.3427202412855148,-0.05969371512097451,0.029129488362996687,-0.001450330304440378,-0.35963017116140394,-0.15941415015191704,-0.08032141661882107,-0.3021950414242814,-0.22928158865950657,0.07290947545203554,-0.007808983150244229,-0.2173280816606637,-0.34230285851624037,-0.11258585799841823,-0.0510883962732532,-0.2934579790694477,-0.4606776344222845,-0.10555883666736834,-0.34531235999206755,-0.17555850040860305,-0.45930678729304275,0.13534996493162849,0.06478629429130778,-0.07712785313675112,-0.424859693542963,-0.17484378396321176,-0.3725754422606505,-0.3813762021881146,-0.47403325679701064,-0.1431868059589685,-0.23433271944288103,-0.3196350499256241,3
8.3,2.875,2.325,3.375,9.3,28.65,6.525,7.575,518.0,192.0,152.0,227.0,576.0,1815.0,433.0,511.0,15.0,15.0,15.0,19.0,19.0,18.0,20.0,19.0,-0.2962266070885292,0.050735455894442776,-0.2225158499362134,-0.3537695412098415,-0.5322767355136302,-0.3580487050855075,-0.44686590606919013,-0.36572028001712226,-0.36488759326404624,-0.22187416412233266,-0.2470093912675265,-0.08134822683778171,-0.42563499361471463,-0.1603985090654864,-0.42201675095851093,-0.16290043998063464,-0.4607531189243308,-0.4360006716682793,-0.06661604575690962,-0.026120055785153362,-0.3788004138072723,-0.24311794523757746,-0.1233668320789776,-0.1512709356365251,-0.5381234149862248,-0.17557012213216017,-0.23209555581197816,-0.43169455725271766,-0.43516053152026773,0.19290318367259318,0.09556080784559357,-0.3014788340020686,3
5.425,2.75,2.4,3.625,10.225,31.45,7.775,6.25,285.0,172.0,157.0,244.0,631.0,1965.0,508.0,347.0,13.0,19.0,17.0,19.0,13.0,15.0,20.0,16.0,0.039352661827924316,-0.24610859642702637,-0.06949486075205942,-0.2583712071193956,-0.480938499623496,-0.3412438275640053,-0.43771857080742016,-0.2072857839496303,-0.4971554518364829,-0.3911335828856461,-0.38744609632438576,-0.2861979870007681,-0.3494986450477361,-0.2938384379169704,-0.19972982047200347,-0.3405862039813807,-0.2093398387412256,-0.15481872253156043,0.15667311146119683,-0.05934687784937456,-0.29625935968070816,-0.23251233673501118,-0.06844048240467414,0.07535373412734377,-0.465206471665556,-0.30812152712344576,-0.1991325033175115,-0.19483204805912718,-0.10560738466120861,-0.15102384433553628,-0.026854931572037482,-0.34090476054690155,3
7.525,2.5,2.3,2.75,10.25,28.25,6.475,7.175,413.0,163.0,136.0,170.0,667.0,1868.0,356.0,421.0,15.0,14.0,12.0,18.0,17.0,21.0,12.0,14.0,-0.17265053087181897,-0.3127225576777519,-0.26174436433842785,-0.1996029631756019,-0.6867075489216529,-0.5541826552080015,-0.23230498847824305,-0.1975469636979758,-0.3131933965293735,-0.2798518302614167,0.024731272593912817,-0.1799098208526494,-0.2029592322671378,-0.30275729003177504,0.08941158704874548,-0.22524216844146985,-0.4468316442557524,0.01229923605220531,-0.33516494036587424,-0.4583490232755832,-0.5277006522827223,-0.07057824888653119,-0.0981777509492676,-0.1912271143190408,-0.24216841332365296,-0.2188913529627075,-0.09794994358926111,-0.22933711550411043,-0.42549289616090147,-0.5503413730516836,-0.3614708586659416,-0.31624459313431735,3
7.4,2.4,2.575,3.275,10.175,27.3,7.175,7.025,388.0,144.0,142.0,206.0,689.0,1594.0,443.0,412.0,13.0,12.0,16.0,17.0,20.0,20.0,18.0,14.0,-0.24435550220179358,-0.6058056046307928,-0.33446709641597816,-0.3023286842967562,-0.07479778238415813,-0.29119315954047575,0.1449132948869441,-0.24261098572971423,-0.18939154579869835,-0.22567637746222713,-0.03831038011543844,-0.33840936842592767,-0.2567550168128283,-0.24601515304281754,-0.0018224368176607954,-0.18642614598321505,-0.5424117870825589,-0.07249917894809076,0.10795113207622693,-0.16767067420762394,-0.3261251017565846,-0.0925058402432449,0.021304636157475246,-0.1362515671915637,-0.18493826821942513,-0.25029224021216556,0.1340727936638232,-0.18891009817939142,-0.08868729768707924,-0.23674530608757494,0.33359656843267516,-0.16255837050535246,3
7.9,2.55,2.475,2.775,11.275,27.2,6.125,7.7,499.0,140.0,126.0,180.0,827.0,1891.0,345.0,374.0,20.0,14.0,12.0,17.0,20.0,18.0,14.0,12.0,-0.19148768632026383,-0.314862900835076,0.03426090712918395,-0.37597010548456455,-0.1841009474010122,-0.22002242877052802,-0.03666198531193581,-0.3200681102156173,-0.19697848990853203,-0.5356042300506464,-0.14806864165581313,-0.5899913340922218,-0.5221560054514259,-0.4641314731540917,-0.4419634684085528,-0.4553839624391547,-0.6917587586789448,-0.24768652428416793,-0.06851293711618918,-0.07303168855237907,-0.43714749359497984,-0.07734364293407724,0.10415353317568636,-0.1494279558763513,-0.24213008545175455,-0.4501681026841939,-0.31113300373603214,-0.20995303058903333,0.04029003608146217,-0.3887325601276476,-0.19354337177858202,-0.2155342482851034,3
8.2,2.175,2.225,2.6,8.75,26.725,5.075,7.8,531.0,116.0,140.0,156.0,552.0,1657.0,310.0,496.0,14.0,16.0,16.0,14.0,16.0,18.0,16.0,18.0,-0.4625802941261991,0.06482618466246855,0.22777297582627518,0.16802282628083648,0.01620755194838073,-0.20182208051798084,-0.32839656719497046,-0.12001825321547144,-0.38259914268910605,-0.33040739587592527,-0.3883119861046319,-0.2186900657728986,-0.49116184548186426,-0.2678066423576895,-0.439428817374518,-0.412487580350781,-0.3104390423741342,0.06082467939897975,-0.0716144579142073,-0.3100304357729312,-0.18924211379419859,-0.5127576029285702,-0.10595340196655709,-0.48834535436434623,-0.2603529111506028,0.05725172757393619,-0.1966869318893261,-0.38997751217537646,-0.4063156730715191,-0.12978796551590854,-0.6027389616848214,-0.22777551252364137,3
5.85,2.475,2.35,2.85,8.7,26.4,7.775,7.5,377.0,119.0,135.0,181.0,536.0,1700.0,458.0,449.0,18.0,12.0,10.0,17.0,16.0,17.0,16.0,18.0,-0.5286499751971165,-0.18305533208700173,-0.33743989693361487,-0.28142293786670725,-0.17077644869204947,-0.2908856548164402,-0.3154498844547978,-0.3442533741274269,-0.120186673281848,-0.027295686124204355,-0.22422939335031666,-0.3283125929454428,-0.40042443258416327,-0.25634581288920444,-0.35298322728268655,-0.29252207501302624,-0.07950223286136944,-0.3461306634717249,0.04968647997179433,-0.21910848612824646,-0.2903848674286177,-0.2041641672318728,0.21180570425055575,-0.007131724580735581,-0.11766637453634995,-0.1066148525777658,-0.0018704677729633203,-0.2725855436577257,-0.2555856742386063,0.10586382643624981,-0.2527511819766354,-0.39844667923296617,3
9.05,2.625,2.325,3.15,10.075,32.6,8.5,8.25,625.0,162.0,115.0,203.0,677.0,2058.0,589.0,524.0,17.0,14.0,12.0,15.0,16.0,19.0,20.0,14.0,-0.42904177370784846,-0.007925845352987668,-0.22856311941963695,-0.3567043623770937,-0.23495176453288846,-0.18116135355549418,-0.19062113808563014,-0.3764280258372817,0.009665814607796044,-0.1271076167264829,-0.11534407478888598,-0.3757780528248192,-0.41589277448619977,-0.18648057011538405,-0.2821346848042685,-0.3111154582993847,-0.60351364479288,-0.5729778414278277,-0.3030718782063586,-0.10763509729067128,-0.40060009104174804,-0.2170366208240044,-0.15270672608158786,-0.035739055913626215,-0.3996984522275732,-0.08082881930205853,-0.20252160126230878,-0.19559261158766628,-0.23286956259682495,0.07927459878324376,-0.21327419473034204,-0.41184110763281434,3
8.2,2.275,2.375,3.025,9.45,25.0,6.425,8.25,475.0,148.0,114.0,201.0,608.0,1736.0,415.0,484.0,16.0,15.0,13.0,13.0,17.0,22.0,17.0,17.0,-0.13318809230798728,-0.09725736212266199,-0.08988616837027184,-0.2528594798110256,-0.1786911009025746,-0.13146313803723228,-0.1319163482765682,-0.30825265843345345,-0.03844865167881626,-0.38165525975281805,-0.020265479071112143,-0.3687027428317846,-0.6754818344206945,-0.15729822344036995,0.2165772633306739,0.08469521791400225,-0.18713134761558803,-0.27450492532554294,-0.053021010053862574,-0.38653154778828186,-0.4962306704960969,-0.13326964793762633,-0.24559602074154105,-0.2011811937913946,-0.5719157192197951,-0.20748440161796403,-0.3257382064197829,-0.4215272838151057,-0.20676807466654726,-0.27660376732106223,-0.25360626412168963,-0.32784204489055846,3
7.825,2.2,2.225,2.3,10.8,23.55,6.325,6.525,523.0,143.0,135.0,135.0,618.0,1559.0,327.0,375.0,21.0,19.0,17.0,11.0,17.0,15.0,17.0,15.0,-0.4601700051636906,-0.045689200368497655,-0.20257315927734207,-0.23619647900961271,-0.44695668368649966,-0.4487528366336824,-0.050540760770350704,-0.34777715676207027,-0.3165598394032873,-0.3506755585557306,0.0053370951854375855,-0.08755934897667074,-0.23323387371951937,-0.44727328194491156,0.049036965721018434,-0.1886048510560305,-0.35751903977569527,-0.3986998796496995,-0.38221151511385254,-0.16411669611437854,-0.2400022705170393,-0.11593724931317792,-0.16055583304940363,0.08361242945981771,-0.002759259975976593,0.019627302242589687,-0.057013551950089156,-0.17200319688438953,-0.3690342835701336,-0.2756247255893985,-0.18641032716695963,0.020130732755962628,3
8.325,2.625,2.275,2.375,8.125,23.425,6.875,6.3,571.0,139.0,128.0,154.0,525.0,1424.0,401.0,380.0,17.0,11.0,11.0,15.0,15.0,17.0,17.0,16.0,-0.5950947510142461,-0.512971058664992,-0.4582110951053955,-0.35206585002526825,-0.25159602171839907,-0.16777749886790227,-0.04686078581545814,-0.4049077523608711,-0.4765110537451232,-0.20083589150958436,-0.041406513672003153,-0.163788955602324,-0.4922898652051884,-0.29624734072803127,-0.30382159779347556,-0.22004220162447907,-0.5252336882081732,-0.6111457562635977,-0.43551731080940304,-0.20533618898102757,-0.36394781559200423,-0.27743853588931344,-0.409095985187372,-0.3378627318261478,-0.4443189963721198,-0.32203000509112845,-0.21848209097517782,-0.27863086278970606,-0.35116544842868636,-0.07789312096430973,-0.40186923298403904,-0.24775116598847988,3
7.05,2.525,2.2,3.45,11.625,22.85,7.8,7.6,449.0,129.0,124.0,217.0,789.0,1406.0,443.0,455.0,15.0,10.0,14.0,16.0,20.0,20.0,12.0,15.0,-0.2298967999298185,-0.10927122348317889,-0.16741113274839128,-0.04636075398829449,-0.1575976743416446,-0.3319664525573211,-0.09292417558751495,-0.57656463148297,-0.09091414004645412,-0.31882179921238585,0.0309107791422238,-0.6084244948082475,-0.3914784293279955,-0.35368907764880003,-0.2342428501751638,-0.46224357585433967,-0.7130691061758332,-0.35288213718414535,-0.04639969432267334,-0.05667985259001085,-0.4159335856282987,-0.2020359517189382,-0.1765635610762633,-0.059709649572802115,-0.1271080802865946,-0.45475478810009673,-0.006886398240512744,-0.513402694501356,-0.43998107695987787,-0.45991858044056894,-0.4807765661547168,-0.28402645186143827,3
8.45,2.225,2.25,3.35,14.6,30.45,7.825,9.7,468.0,124.0,116.0,224.0,996.0,1893.0,459.0,570.0,12.0,12.0,13.0,19.0,20.0,17.0,19.0,18.0,-0.11476908574728883,-0.13573046407822006,-0.3578830080577887,-0.09210062092254283,-0.2798225037941351,-0.2717409733648067,-0.23088413977716749,-0.3286367530980453,0.06723411392755387,-0.03306917284090515,-0.05816674548735799,-0.22747349096976593,-0.3101557795957472,-0.046924209222002106,0.047127029267872766,0.034438906275509364,-0.8734760823314972,-0.6137827310824443,-0.3549294004089813,-0.24421962989250068,-0.5624839267270461,-0.365063234528333,-0.41694223887361803,-0.258092952848236,-0.26878357837089106,-0.6194982655025212,-0.07958724103227602,-0.46127875702584176,-0.3367670238930253,-0.41564976834340744,-0.19760205766218603,-0.1892250278021864,3
8.15,2.575,2.625,3.35,10.475,24.975,7.625,7.375,520.0,151.0,137.0,200.0,729.0,1457.0,493.0,511.0,19.0,12.0,14.0,15.0,20.0,17.0,19.0,17.0,-0.2919403274344626,-0.0319549128076554,-0.3788629172268596,-0.2080521249826594,-0.1259749864366709,-0.08758628176833315,0.09565534491432684,-0.09762535133932297,-0.06990137773360973,-0.2794116057276941,0.0950864137685175,-0.02399971963706779,-0.2657655920477645,-0.382805768652103,-0.18812430089965215,-0.3063523021180421,-0.726188874502841,-0.44936168402742965,-0.33505612484300434,-0.2658790146558014,-0.2420458007250641,-0.45326987576302746,-0.07730284270653551,0.0024350800617388597,-0.478212245274724,-0.4611108917204577,-0.18241626048952767,-0.33902290189131745,-0.3212132612498764,-0.04989958702410183,-0.29590968439333126,-0.08584118709773114,3
8.3,1.925,2.4,3.05,11.925,30.15,6.3,6.675,586.0,117.0,121.0,183.0,783.0,2030.0,403.0,389.0,21.0,9.0,11.0,18.0,21.0,20.0,17.0,12.0,-0.38127434931690085,0.14095406496659554,0.12462676319706564,0.04241045828546505,-0.3451334458996786,-0.15024066555100926,-0.3946074786753052,-0.42155840771023084,-0.03550309710575285,-0.251433313031721,-0.43525634424396503,-0.2864562413801197,-0.45863193922156004,-0.32957338441573203,-0.5476784757048014,-0.3880454923850659,-0.798772012657041,-0.6792736873411783,-0.4881908848630353,-0.0829497263954286,-0.5969443551740031,-0.40478033024369814,-0.2526827127508192,-0.00993716379219696,-0.4350656612129101,-0.3342163045264691,-0.14475832300246202,-0.1984262020536117,-0.13482721723897467,-0.07776153752385404,-0.29598220411865145,-0.11439575964789964,3
7.025,1.95,2.325,3.275,9.625,28.875,6.425,6.725,475.0,106.0,131.0,202.0,587.0,1792.0,366.0,404.0,18.0,14.0,13.0,13.0,15.0,17.0,12.0,16.0,-0.3639584567189294,0.04775779020644591,0.014507707380454687,-0.05259333217125272,-0.11726543652919817,-0.08661671371746599,-0.12824461722642125,-0.21824655505220122,-0.011634683248855665,-0.4052442640263735,-0.03441512046315621,-0.3844229991176038,-0.24654822334070337,-0.02093903978043756,0.03147579272178715,-0.33238963843234204,-0.47860328788290163,-0.27884497353110205,-0.19096604246905707,-0.15429043756180427,-0.48501161793102154,-0.31514058368154,-0.26258512799093175,-0.20337935289262163,-0.2549397051154304,-0.5035216996436217,-0.28869443131110006,-0.26580454494013583,-0.3561318126872723,-0.27508412294066065,-0.10898599758378834,-0.1518974898532839,3
6.25,2.25,2.4,3.575,10.825,28.825,7.975,7.425,389.0,140.0,140.0,196.0,609.0,1810.0,446.0,453.0,17.0,14.0,18.0,18.0,16.0,20.0,14.0,18.0,-0.21754870577203342,-0.08527852875927058,-0.10110186076567476,-0.03046565261594917,-0.29760599731842,0.056812689937597916,0.23708688249795867,0.11687148854415226,-0.26038333211985026,-0.41188661220384865,-0.1540129833414283,-0.3245711300272902,-0.12663010107643816,-0.2794431027455528,-0.059990674922782074,-0.3105749193632553,-0.13734247703191008,-0.4267094898358545,-0.09196131436426572,-0.27564359967803037,-0.3951732786791233,-0.35602696362197517,-0.12830130700207695,-0.268453831667764,-0.3724928682649534,-0.6696351848291445,-0.2999925012887062,-0.36935545128635316,-0.19806800831015928,0.03177185095988081,-0.35906246622906274,-0.07408394774848824,3
7.3,2.1,2.525,3.025,9.225,23.1,6.8,7.0,466.0,131.0,139.0,151.0,505.0,1548.0,422.0,408.0,16.0,14.0,12.0,12.0,15.0,16.0,18.0,15.0,-0.11807940149446336,-0.15324050533197664,-0.3968810583163341,0.045618546827089164,-0.4760046619780755,-0.24133295353045667,-0.14673962801781834,-0.27912305110617364,-0.25160148890429757,-0.2385511850623695,-0.1057115492464888,-0.16059900855102677,-0.270905631829069,-0.24878743838756445,-0.04905121069038447,-0.059107771840699826,-0.2248348839290233,-0.21331357262039363,-0.3474116633347184,-0.28615470538776144,-0.5391505034774072,-0.2564056123761211,-0.09095836642053291,0.050364512922137464,-0.5369737374260181,-0.5536271802317773,-0.2994457881133277,-0.38412612203982666,-0.14213764898115097,-0.3023208084907897,0.026724237134333667,-0.23779955689956714,3
6.5,1.675,1.5,2.15,8.575,20.775,5.05,6.15,406.0,77.0,81.0,123.0,501.0,1288.0,312.0,355.0,17.0,8.0,11.0,12.0,15.0,14.0,16.0,17.0,-0.15782536895302063,-0.13805580777332535,-0.16739603596539843,-0.0574996158905331,-0.17292701658213297,-0.6165330987300892,-0.2073905126115299,-0.3570361234230043,-0.013326882672638459,-0.05523702896374847,-0.13764810781955342,-0.1650976328125813,-0.2344000952648709,-0.2568055250326347,0.04217995291631952,-0.10680913852074388,-0.1277893233943924,-0.4326737511066529,0.13223751960025834,-0.15391728562597115,-0.29747299144137723,-0.4273541500764218,-0.20121589067143447,-0.12524650457349357,-0.4396227913938681,-0.34235984815378334,-0.38586955615668234,-0.4656623934477296,-0.20881498571819848,-0.26596859412738033,-0.1269877706709256,-0.4034890451358885,3
8.075,1.775,2.025,2.45,10.425,26.0,6.425,5.1,511.0,87.0,122.0,144.0,678.0,1443.0,367.0,284.0,16.0,12.0,15.0,17.0,18.0,16.0,14.0,16.0,-0.3795816960678882,0.047413052827966644,-0.1185424083713506,-0.20305583191814644,-0.06579287737258728,0.03759496149203166,-0.05086315801002201,-0.3459673797167888,-0.1721374819184397,0.040160068279085,-0.18002266320201896,-0.21398327491059912,-0.5141038653024413,-0.5601027202378764,-0.31463218587433184,-0.13247937384331873,-0.5022570511967491,-0.07904101901838567,0.059917583626318174,-0.23714874860541987,-0.2912532437094118,-0.5340428354500832,-0.14275218857335856,-0.3306134082300266,-0.20986454054370013,-0.42447809967427863,-0.16359791798536436,-0.3535546233519538,-0.29324142161267397,-0.4419775658125091,-0.3157230967783998,-0.21450870510576187,3
7.0,2.4,2.35,3.075,14.025,30.75,7.5,6.025,438.0,151.0,138.0,181.0,840.0,1825.0,473.0,387.0,19.0,16.0,10.0,15.0,12.0,18.0,20.0,19.0,-0.18573712295323735,-0.05913831850100187,-0.168455392574255,-0.3499117477917324,-0.26264222159877565,0.09347639154103057,-0.016017942508772434,-0.18692098346474545,-0.21090756900659213,-0.0547996689396912,-0.07183192800161656,-0.19907926712309137,-0.45001751935307793,-0.4020808440269597,-0.08739602623084551,0.11424098894465257,-0.522819467108912,-0.2647952806410986,-0.3279176644210546,-0.32265156285828694,-0.3098772286768533,-0.3443316161893599,-0.18157780666242165,-0.004988043883606053,-0.3692429375559491,-0.44034337876769736,-0.23980919972304604,-0.19362610452144408,-0.4064176985745588,-0.34572588927266423,-0.271242878900974,0.03187494823885996,3
6.525,2.425,2.175,2.675,14.525,21.775,5.4,7.675,470.0,146.0,123.0,166.0,1002.0,1225.0,298.0,548.0,21.0,12.0,12.0,14.0,20.0,14.0,18.0,21.0,-0.6542732987565156,-0.09959448887833265,-0.2827890360241204,-0.1267868392051122,-0.26399593509736236,-0.15120959693728037,-0.27772039104231666,0.05700158580451041,-0.11750686053686761,-0.12155297732912954,-0.2725450219251055,-0.033581056921776535,-0.26421248343041925,-0.16096145404442844,-0.16017947393644738,0.08690686073955921,-0.6344926936699764,-0.21472630594104414,-0.2690895790760396,-0.28904441564295175,-0.4977295597687742,-0.29610846150753667,-0.4602850317108809,-0.5269907406016134,-0.21087961795753482,-0.24054863904933654,-0.001203418602102572,-0.015936272502003787,-0.4231257606135317,-0.10982649934394162,0.2717552986516323,0.20722561641771553,3
6.25,2.825,2.975,3.2,12.225,28.725,6.9,7.775,396.0,158.0,173.0,199.0,809.0,1903.0,471.0,450.0,14.0,15.0,15.0,14.0,18.0,20.0,20.0,17.0,-0.4722516957888313,0.07590137035716563,-0.4570012993863197,-0.42012453963088114,-0.35135313804099527,-0.34860357616093,-0.35558982895467983,-0.13249947016431304,-0.35975509119703236,-0.4137729798490895,-0.2664895467666693,-0.15374791268108462,-0.4304104044137557,-0.29179369453729337,-0.40856411878395316,-0.1390180916125597,-0.6951532103580278,-0.4517039320359975,-0.34750739653692275,-0.06161365772865273,-0.440963338049159,-0.06634337105716932,-0.2225091569835683,-0.07218089158926674,-0.45339523755064753,-0.1712426675752755,-0.24155870573771004,-0.041706810010095935,-0.1847032324837445,0.06465926176784605,0.12037921931599632,-0.35058578610324503,3
6.925,2.325,2.675,3.225,10.525,27.1,6.625,7.975,413.0,129.0,158.0,190.0,707.0,1780.0,409.0,480.0,12.0,15.0,11.0,14.0,19.0,18.0,14.0,21.0,-0.280930181271442,-0.5616066120351958,-0.10907331178782757,-0.2798207388971795,-0.30540313507872696,-0.30600466728171277,-0.23850802372609695,0.0038851852767137185,-0.22606327614524546,-0.16020909527378893,-0.1406264867855366,-0.09139698726662812,-0.3667745144336732,-0.1253912309916344,-0.04971819225411326,-0.052498497618537046,-0.5710538886576815,-0.48327075217402155,-0.06459097469233299,-0.19206632936255774,-0.3750530218017427,-0.09224976855650023,0.18178726169785162,-0.10849047044730092,-0.19654200972500963,-0.27602833850707703,-0.30738962918626417,-0.2015840123230062,-0.4394425995406534,-0.44122010133193135,-0.3609580949466537,-0.40197238191087215,3
7.475,2.05,2.25,3.2,9.075,23.8,7.45,7.4,529.0,132.0,117.0,196.0,597.0,1434.0,459.0,491.0,21.0,13.0,11.0,17.0,17.0,16.0,19.0,15.0,-0.6663319279518557,-0.46439768995030156,-0.4797540962278853,-0.20813500120571712,-0.196650238593191,-0.26817719450880223,-0.18905996381452503,-0.2102600761501619,-0.09745411758088178,-0.35856081357847536,-0.05168610436367445,-0.2653754211023649,-0.21886276441460936,-0.25545903146411175,-0.12827544300897495,-0.04147577905244133,-0.581928661882837,-0.3606834966836688,-0.38602482713617287,-0.20179437711503975,-0.3738209607080784,-0.48615409855407343,-0.06894729128755764,-0.11418163575036633,-0.38808133374636633,-0.1540342117711066,-0.00827311742813773,0.1383690886435935,-0.3930534267692338,-0.33832523623413313,-0.21655214679978763,-0.3471498438503489,3
5.675,2.35,2.2,2.675,11.325,22.575,6.6,6.5,297.0,141.0,127.0,173.0,792.0,1406.0,386.0,411.0,15.0,17.0,13.0,15.0,22.0,18.0,15.0,21.0,-0.16134302661605096,-0.3004332727386287,-0.24342822316706725,-0.1330364281002135,-0.35414927128663903,-0.0901169679227371,-0.226319892504951,-0.2527842263993015,-0.25601451923818763,-0.06056217618673162,-0.12226694824948665,-0.2725743324906614,-0.3629669277524636,-0.09419953062701296,-0.24147550449706612,-0.20046462049999653,-0.5483131725871904,-0.3604979700256147,-0.45151962795325135,0.01829428387690928,-0.3959496477265969,-0.3067642588620753,-0.2576966348817996,-0.010234267272079375,-0.26996963082653874,-0.29900677555840793,-0.36966013756954363,0.07539659925307227,-0.23240897881852143,-0.2779050965855333,-0.09678607477392641,-0.32718525024162076,3
7.125,2.625,2.5,3.425,11.925,25.975,7.3,7.575,481.0,175.0,157.0,225.0,826.0,1677.0,483.0,481.0,16.0,18.0,16.0,18.0,17.0,18.0,20.0,20.0,-0.20963256594717836,0.08736920205286551,-0.4311210513064042,-0.17517343336512006,-0.585057026152525,-0.18261873032272033,-0.13840615537042983,-0.13837686874845678,-0.7053718231681477,-0.4789665619107947,-0.3443552797768039,-0.21969622032373654,-0.6578485526665879,-0.3870133872074072,-0.2529869576784942,-0.18508677358629164,-0.5807663151535954,-0.22998983308464763,-0.1576502246082938,-0.12227759485644403,-0.38804555895092885,-0.3774004359688577,-0.026403981424749572,-0.2505331933674117,-0.6559983892804214,-0.5888198416103053,-0.4345696600847623,-0.29840398711055516,-0.32609776128072,-0.020493902173013268,-0.12185555984125634,-0.222416065953247,3
6.075,2.475,2.425,2.9,10.5,28.025,7.675,7.6,399.0,141.0,143.0,166.0,732.0,1935.0,478.0,451.0,15.0,13.0,15.0,13.0,18.0,23.0,17.0,16.0,-0.23243702604013805,0.011183690636487172,-0.42313025757949135,-0.21943962592546642,-0.20186911604677898,-0.16380802467943797,-0.059626964956336584,-0.027420684260313813,-0.5108471941778846,-0.5120189997221549,-0.26705351006270384,-0.29641805111084385,-0.3753382875018046,-0.4907768928740603,-0.3186894131023357,-0.27547013592752756,-0.7735237581818574,-0.49171853087144146,-0.3021682386029859,-0.42037701166371727,-0.6015502324476372,-0.28188738506292843,-0.024085600668401402,-0.16613157709526102,-0.5551112323083414,-0.40032350524419874,-0.3157257115887892,-0.25934069612683147,-0.25922586323082597,0.12819543530728503,-0.13091407535893382,-0.23751214508754784,3
7.7,2.45,2.05,2.7,7.45,25.45,6.825,5.95,367.0,132.0,107.0,153.0,404.0,1574.0,455.0,386.0,13.0,11.0,13.0,13.0,14.0,16.0,18.0,18.0,0.3693118230725787,-0.4836289937303157,0.02676381842979641,-0.2651827628192145,-0.13213833290108618,-0.06782014765437828,-0.1217368188070344,-0.16809582413434557,-0.23341935446793188,-0.17886021761550272,-0.3962701914899075,-0.2815354485501184,-0.2809179115194983,-0.3835722128047084,-0.3324940350896442,-0.24875682571111973,-0.3217598062988303,-0.4233219031387655,-0.40162887858598584,-0.3973159860336292,-0.4330954816354956,-0.11960205678221093,0.01435244184300266,-0.05838189475392167,-0.4235769432740581,-0.28013845191123127,-0.1471253581526837,-0.3742919795029824,-0.38285722406729045,-0.03408551730762937,-0.06859000575948918,-0.21050024287763555,3
7.85,2.7,2.3,2.975,9.9,34.375,10.525,8.8,430.0,182.0,152.0,192.0,649.0,2182.0,733.0,589.0,16.0,16.0,22.0,18.0,16.0,22.0,22.0,18.0,-0.027697278505676715,-0.3039280915138882,-0.2489281276118482,-0.2922004477621671,-0.488384931190486,-0.2717170777446282,-0.22866538877704753,-0.2417602913588163,-0.4023208057024093,0.1586203461065183,-0.02380617745305878,-0.10565415428445425,-0.3639759882977692,-0.24506537356480565,-0.2905096277532464,-0.0933918031412313,-0.6484727738227014,-0.5128815950239566,-0.563521770821637,-0.6492100552057829,-0.5477837272323562,-0.11622608989282622,0.12614601301656195,-0.07679630186623088,-0.781119036074212,-0.5306248523462997,-0.49794248066539526,-0.09562603374903166,-0.4763898921271314,-0.4152118360247816,-0.4049863652824237,-0.4700621439813066,3
7.2,2.075,2.575,3.175,8.325,26.625,7.675,8.0,451.0,129.0,157.0,196.0,576.0,1818.0,494.0,477.0,18.0,15.0,17.0,15.0,21.0,20.0,14.0,17.0,-0.29068662172145465,0.006838938171061395,0.021287270989197776,0.07079983978492335,-0.6227855942680108,-0.36394892438134085,-0.5499189996305406,-0.3146002422779186,-0.4153680714326929,-0.1317809895031659,-0.29853646653121374,-0.22358855065326966,-0.43588772577096485,-0.35142656978487635,-0.44932794505819307,-0.06735105478510225,-0.7152814052900659,-0.35294272562740336,-0.06912638505030867,-0.12354866254101542,-0.6217210816413579,-0.13995324925259506,-0.07029528130349551,-0.11095933708510233,-0.6229376017420504,-0.11958505928705734,-0.01630172984342036,0.13127337779760131,-0.10349426268133317,0.10162383983734173,-0.13870846272380477,-0.11011627102660772,3
7.375,2.225,2.55,3.225,9.45,23.725,7.375,8.35,490.0,138.0,144.0,176.0,627.0,1377.0,466.0,538.0,20.0,15.0,11.0,17.0,18.0,18.0,18.0,21.0,-0.6579088214229191,-0.1535883501012401,-0.08072784278953546,-0.2501757125432549,-0.289302999460334,-0.33878983469293383,-0.23208171543366685,0.03104351889869082,-0.14781060165376356,-0.09859255546455988,-0.1626280726562041,-0.05237502575163502,-0.10407202738699534,-0.3238328681769015,-0.09073399666850095,-0.29511942914066763,-0.5196067660689122,-0.4732071790944226,-0.07675049310759935,-0.31906332082452876,-0.3556580194550715,-0.4922665121146525,-0.24798883413729517,-0.26267692601865,-0.5252406999556356,-0.4300200439785041,-0.2088220070026849,-0.28023794495882776,-0.2942252890650599,0.12297797341867071,-0.04792221376742366,-0.4235265390471442,3
7.0,2.575,2.1,2.675,12.125,23.65,8.1,6.275,416.0,164.0,112.0,157.0,845.0,1569.0,516.0,408.0,13.0,18.0,12.0,13.0,21.0,19.0,18.0,14.0,-0.21148731938810347,-0.22071468338198036,-0.18601544629546748,0.10804915703005818,-0.33433752264555844,-0.1291164172101593,-0.033607724036246865,-0.08425978248180169,-0.12613231862078203,-0.09726033617080262,-0.22530184396727646,-0.12912839587593594,-0.3630206902397357,-0.24477184868643295,-0.312583291950164,-0.19213321054842297,-0.9605771484572402,-0.7801729507019692,-0.42246821397304124,-0.15976355368878997,-0.5506399702547815,-0.3836174553018336,-0.2822955283051928,-0.21928167398450962,-0.5316445527641313,-0.4161763669614086,-0.38031533318378824,-0.478578419375218,-0.3968881102707261,0.07038317794356833,-0.12178149421300873,-0.28240457308098865,3
7.85,2.325,1.975,2.15,11.2,20.275,8.125,6.8,468.0,118.0,118.0,139.0,701.0,1221.0,538.0,446.0,18.0,6.0,10.0,13.0,19.0,18.0,19.0,14.0,-0.21038598881433632,-0.2236737654120985,-0.3332464818296796,-0.11945334827775057,-0.17113549710949172,-0.2581822825934593,-0.24712353889667263,-0.08166698360860708,-0.24020858278098006,-0.04399250777493833,-0.3253786217836015,-0.212945860526921,-0.3458087709767454,-0.07823548304140364,-0.2887036508547427,-0.3378539290167446,-0.4448812359994152,-0.5254255131006901,-0.313514976741093,-0.47610637659358485,-0.23307793848355912,-0.04857176110037827,-0.032172563059641876,-0.18712020437367216,-0.5501505447623359,-0.14578686995073245,-0.2708495914608444,-0.30965865566472084,-0.3680844693356277,-0.23566363810570232,-0.2434691912828331,-0.22653364398146797,3
6.75,1.95,2.5,2.75,12.625,25.1,8.05,7.55,441.0,99.0,133.0,176.0,852.0,1530.0,540.0,458.0,17.0,14.0,13.0,16.0,21.0,18.0,19.0,17.0,-0.06806729026994532,0.04795541619372497,-0.033275594917300665,-0.06853954250701672,-0.11580727461954034,-0.1260695009260879,-0.2722627782750825,-0.4834921762195389,0.053737065204753326,0.013584799570460895,-0.3862210321012175,-0.10636599789903506,-0.14137712805259697,0.03275181623791624,-0.44875579709330216,-0.17799441365655438,-0.9916877580899596,-0.9436270698809232,-0.7805245933321587,-0.4443435186422287,-0.48414278056772186,-0.3903937043651392,-0.20361668365285238,-0.2569681660571553,-0.4593223449378411,-0.13962471903680804,-0.1387914621649898,-0.17521754248814247,-0.2956141161231902,-0.26634194748624124,-0.09979564443580834,0.01709946427633491,3
7.275,2.05,2.6,2.7,9.7,27.425,7.375,7.0,502.0,90.0,134.0,152.0,692.0,1869.0,520.0,473.0,19.0,10.0,15.0,14.0,18.0,21.0,20.0,21.0,-0.42728213913439655,-0.2681990664110299,-0.11859121874714239,-0.26249444272438005,0.13715578124219743,-0.07664752311010932,-0.33750826673773493,-0.20652995503606825,-0.11081106518270138,-0.3425509979148978,-0.0956230855693791,-0.2892222044757003,-0.12132414158683968,-0.1296090391800084,-0.20123412930230491,-0.35821893670414123,-0.6765465545237026,-0.41981855525769685,-0.07326054805808553,-0.15648161283320938,-0.5622181442395704,-0.18425340014292685,0.004145084116873324,-0.1609147660792461,-0.36626049527215976,-0.21112474706032858,-0.019029994737367377,-0.3630876968664693,-0.42908144176902835,-0.17205170695645602,-0.30421496105969265,-0.2367104618150982,3
8.0,2.45,2.875,2.875,8.025,25.35,7.65,6.225,519.0,134.0,165.0,156.0,534.0,1541.0,488.0,389.0,13.0,12.0,14.0,14.0,15.0,15.0,17.0,22.0,-0.4600296091367784,-0.33316949322281875,-0.4075474205450464,-0.3412560298207604,0.03182802113779678,-0.15346214031705024,-0.2634895565750834,-0.019402542204312166,-0.28743152943719186,-0.24813045332789857,0.07336041164527925,-0.06503882654651864,-0.06474680713287957,-0.20559538285287535,0.041510657841964664,-0.0740293669701852,-0.5717195763333698,-0.5820306395926155,-0.2806379930816098,-0.19190647990451148,-0.2854861127556043,-0.4351990503549795,0.03835404961674208,-0.19336436987377603,-0.41679726581423404,-0.38712008038637225,-0.2579758451214513,-0.03903523234223067,-0.23374226725135405,-0.0574388597531801,0.018864940810880894,-0.04760875948551971,3
7.275,2.175,2.775,3.275,9.225,25.875,9.525,6.375,373.0,129.0,175.0,200.0,594.0,1739.0,636.0,452.0,11.0,16.0,14.0,18.0,18.0,22.0,21.0,21.0,-0.03721020320185056,-0.18151608448504886,-0.2887785949624625,-0.040610409664822406,-0.1660066464987335,-0.24399317274722226,-0.33450861892972455,0.06149072494934255,-0.3420072393152642,-0.26003190573074786,-0.26787624091747647,0.18453588870071838,-0.41205955490352186,-0.22260128999879458,-0.16999383517453084,-0.1642242672810245,-0.7282482246304351,-0.6004925068244061,-0.49545816388271846,-0.1083142049381711,-0.34672606517794,0.13451599366366673,-0.16753129389566904,-0.16630871787686505,-0.5881423196290895,-0.3127955650922521,-0.15056307256972495,-0.12327607680984821,-0.3726311371954988,-0.04878090883755352,-0.07938177348277044,-0.23745440613630772,3
7.025,2.125,2.2,2.375,10.75,22.4,7.55,6.6,375.0,120.0,121.0,148.0,760.0,1490.0,499.0,435.0,14.0,12.0,10.0,12.0,22.0,16.0,19.0,17.0,-0.1361838428842076,-0.17447178965358448,-0.10029861407159225,-0.22151117702619286,-0.002564434242128983,-0.025740695854748887,-0.35958919942635853,0.04003299910795773,-0.15112247645690177,0.04040201122591661,-0.21842307373930106,-0.1034627322996386,-0.34253074606901907,-0.11791466411695355,0.11426289817343148,-0.04302919810510226,-0.8232152430402705,-0.2720437444940047,-0.38507261803835724,-0.3154575953637454,-0.3708133428692471,-0.0653540987340433,0.22116857884688254,0.10594314577178242,-0.29315122964929674,0.0354417730288195,0.026937194690354424,-0.4303451603106491,-0.43406332981835016,-0.31931496124559633,-0.06280072887589921,-0.045598174219674235,3
9.5,2.55,2.55,2.8,7.4,20.075,6.025,7.35,508.0,142.0,140.0,176.0,478.0,1384.0,395.0,451.0,14.0,12.0,18.0,18.0,14.0,18.0,16.0,17.0,-0.2961629516908145,-0.5429098358179303,-0.3149944576976608,-0.18679443092193007,-0.3009486885400663,-0.4222991438665842,-0.2088571006662923,-0.4049631653419549,-0.3117318114113513,-0.3330379617374009,-0.10055696389962568,-0.464476367356949,-0.42535643760297437,-0.19217826655966522,-0.10935896740839435,-0.21547763355658742,-0.6679447893606176,-0.28755552869463097,-0.1689608627896258,-0.05259828882441939,-0.7836136499790975,-0.45709165315957134,-0.4134527514306848,-0.2867243806589674,-0.44158842184053587,-0.36181519261043066,-0.30291141934284477,-0.5323220655897242,-0.5143191835721602,-0.5149036822522526,-0.35907143893237936,-0.0023899571714067914,3
8.325,2.2,2.125,3.125,10.775,26.05,9.1,7.725,520.0,115.0,112.0,182.0,733.0,1575.0,508.0,485.0,14.0,11.0,9.0,15.0,18.0,13.0,14.0,16.0,-0.33607638348172414,-0.11758522605045656,-0.2167059071742796,-0.20393575131393124,-0.041360670726945215,0.018856441764780782,-0.38744355040886885,-0.15180828997523074,-0.03853225247654134,-0.10250522287081461,-0.24224932366247978,-0.10766540044764444,-0.2290440737691591,-0.28846834864072607,-0.31028016621136895,-0.23601491489074533,-0.6044080148056409,-0.33789650783461805,-0.18134717126768304,-0.38801510665083633,-0.5057510175772576,-0.5366741100885198,-0.4331806666284817,-0.5666802705801,-0.22908322812636306,-0.31182793017036414,-0.16547858109381067,-0.6348254896762119,-0.5158931048140659,-0.3492262699506679,-0.570352125443483,-0.13022655244010964,3
6.2,2.825,3.3,3.775,9.075,31.2,8.625,10.1,400.0,141.0,175.0,219.0,607.0,2064.0,487.0,674.0,17.0,13.0,13.0,11.0,17.0,18.0,14.0,18.0,-0.7308247268319271,-0.583269087695261,-0.2493342841586918,-0.18723593767214838,-0.002870568917129659,-0.16522938487621255,-0.09755751617545776,-0.293953585798008,-0.023478856414464983,-0.062325009835558956,-0.24154389658561465,-0.17094378751242362,0.015337024230553293,-0.10953794862504598,-0.04514472411519664,-0.18513539365591158,-0.5675540492972058,-0.48142565247363517,-0.26045935806854054,-0.37440074088580644,-0.48694785073814584,-0.2510254265840402,0.06484327269977931,-0.1142792594228717,-0.1327588671265075,-0.05754731281631551,-0.16873732238365244,-0.33221376572759265,-0.676017171355828,-0.36268013226503687,-0.34711825444695943,-0.19512712679149913,3
8.1,3.325,3.025,3.075,7.175,30.575,8.7,7.9,540.0,164.0,179.0,178.0,464.0,2104.0,535.0,465.0,19.0,12.0,14.0,14.0,20.0,20.0,21.0,16.0,-0.22474556782213784,-0.13180928729151112,0.055852430009106536,-0.21701885657552394,0.0037233661100422233,-0.17168745399095542,-0.04203310802951438,-0.4470184828332029,-0.15623593091241558,-0.04370537090245024,0.07547531484126709,-0.3250330217198659,-0.16668640989145592,-0.0996742633540217,0.09830063071636576,-0.3282387096879785,-0.5013960479721594,-0.282460315877207,-0.31575561718375944,-0.2651518600591246,-0.763911892516612,-0.3295477706264088,0.07875477531325491,0.01964640309360178,-0.4112365657640059,-0.3031287335478096,-0.17795983380202085,-0.17466922083359437,-0.24676685402914542,-0.3522439925540451,-0.14724035344138237,-0.08433177258823862,3
7.75,4.1,2.6,3.2,8.85,28.45,7.725,7.6,522.0,235.0,167.0,191.0,518.0,1837.0,539.0,450.0,19.0,14.0,18.0,16.0,17.0,19.0,20.0,17.0,-0.21136076510352886,-0.15454985504477553,-0.13739440043987955,-0.10151629433938437,-0.42613722764412354,-0.5095434641640236,-0.23964270573504443,-0.28917310870376,-0.46479761775971823,-0.3682329503524118,-0.06476191887828901,-0.2195699582024226,-0.29284896727282095,-0.4366948903693004,-0.24106865612029704,-0.30021465384000223,-0.2010648866864641,-0.34090983597216024,-0.11742694505865973,-0.1590618931187431,-0.5054454131723816,-0.2737516720022518,-0.1410035647695002,-0.011057892812096544,-0.2786345525053411,-0.07737267269651041,0.06039241477892379,-0.33884332694152336,-0.26627536386375106,-0.3559789858831849,-0.29665049915341607,-0.3618272385157715,3
7.6,3.225,1.925,2.225,8.475,21.025,6.725,7.5,473.0,181.0,102.0,126.0,581.0,1264.0,422.0,404.0,17.0,8.0,13.0,13.0,18.0,16.0,17.0,10.0,-0.2661703812089545,-0.11651284516653486,-0.20034811583376094,-0.2833398470531299,-0.29825501878478927,-0.03855893576396327,0.00251276880006828,-0.05351027694407225,-0.0665218111482768,-0.10756601071446148,-0.12935008771854106,-0.13832111427876193,-0.15057255485106324,-0.3442912356460305,-0.24389568647925966,-0.1415214365177468,-0.5906638915413114,-0.37254020664958415,-0.24433872701805917,-0.2841513320715892,-0.0999062085314088,-0.14235900114867542,-0.004590630695073497,-0.35612942686179405,-0.016893709837688748,-0.20136909339166206,0.026655072252281083,-0.337247750456712,-0.2341717924525662,-0.3920561417647693,-0.21042603229448173,-0.3013087305975166,3
6.8,2.125,2.425,2.05,7.85,21.75,7.8,7.35,411.0,118.0,132.0,138.0,531.0,1471.0,509.0,421.0,14.0,12.0,13.0,19.0,19.0,23.0,20.0,15.0,-0.20845665391890542,-0.16038126520367363,-0.23273468722989918,-0.025265562091177318,-0.3012449374535006,-0.24460245968753555,-0.41573196116495253,-0.06328686756787275,-0.18931335347607203,-0.18004659279977714,-0.3434994998956503,-0.23086718040210674,-0.5745943707272343,-0.34061989165318796,-0.2904368101313706,-0.0366616573133054,-0.5953981940203308,-0.32547945113389204,-0.561313000973574,-0.273866425547519,-0.3999163929346883,-0.17060301176098636,-0.11634092027804308,-0.02908582458943445,-0.6846669671257118,-0.441328955104824,-0.2053126485557952,0.05495147335091064,-0.20181692136503745,-0.4363367894460568,-0.25308665667167435,-0.253162099230561,3
5.1,2.4,2.45,1.8,9.725,21.45,7.625,9.525,338.0,136.0,150.0,119.0,589.0,1387.0,480.0,658.0,12.0,11.0,15.0,11.0,14.0,18.0,17.0,23.0,0.010856417278011081,-0.22643249315155084,-0.022837282532945993,-0.17660363602868231,-0.4888430044850955,-0.10201376570933307,-0.28491066837566004,-0.33041812347461086,-0.49440550995754734,-0.19039644741240822,-0.36331074125992086,-0.2543548197104852,-0.5667214634068389,-0.15926501934579268,-0.10879363519996134,-0.1470843988703269,-0.5239143229700512,-0.2764960890629098,-0.3531507345427694,-0.1280789885949796,-0.6129842207466034,-0.43927453276073614,-0.3372218178150523,-0.06154362258054084,-0.6175509815933995,-0.4408486993461005,-0.5355773973848331,-0.3804114416477286,-0.4900952336153398,-0.39346683945441946,-0.30373076295134777,-0.22093799111743134,3
8.4,2.925,2.375,2.95,10.3,25.55,7.95,9.375,522.0,165.0,143.0,202.0,631.0,1604.0,534.0,671.0,16.0,16.0,11.0,16.0,16.0,17.0,15.0,20.0,-0.17829475689687763,-0.1687319794446719,-0.2704497068825855,-0.036510814288782736,-0.24677370573287283,-0.3716498084854637,-0.20975434481636837,-0.26394734123470376,-0.14771181961614763,0.02564550384527573,-0.15541953911508677,-0.2864398891611247,-0.5166490970791464,-0.20053893992571223,-0.36123854872721756,-0.37361362627784306,-0.31678919099115066,-0.24419301181029238,0.10858915523527718,-0.11536921424444206,-0.3377118557265971,-0.11676221848005695,-0.12142793420229421,-0.10058602676717307,-0.6673848879811614,-0.399674343225473,-0.12942061598313848,-0.08708268953841004,-0.6179539914320267,-0.2978828010602141,-0.30261080929707235,-0.33223512698365953,3
5.65,2.725,2.375,2.15,7.125,23.675,7.25,6.15,328.0,163.0,129.0,146.0,388.0,1486.0,461.0,407.0,13.0,16.0,9.0,18.0,12.0,19.0,15.0,13.0,-0.17885763339847627,-0.25276213106400836,-0.08256285567288331,-0.311983798818384,-0.44472137903649417,-0.5333806381984341,-0.18174420263448274,-0.19846092048305128,-0.14859683669119478,-0.14347299105418487,-0.17353678095159542,-0.21164585191974547,-0.5568906220213293,-0.16028173314453742,-0.11124418553078176,0.16084850708223242,0.07408466307009148,-0.626532471858279,0.16088955059079715,-0.3609016812160874,-0.39405727569663473,-0.11747800388211384,-0.015012522319379032,-0.12506765954537438,-0.4515701185106463,-0.20985453125890782,-0.18474406671050472,-0.12235815719441825,-0.30552473050342077,-0.3333781507577123,-0.14914254925525527,-0.2558595246211548,3
6.325,2.875,2.675,2.85,8.65,22.525,7.775,5.625,369.0,165.0,172.0,184.0,568.0,1416.0,507.0,390.0,14.0,10.0,14.0,12.0,16.0,18.0,20.0,19.0,0.02456314122486729,-0.15918338645295046,0.16019513017219075,-0.2350894559695562,-0.27643825162670477,-0.07687889381453301,-0.12324934920318417,-0.22870633805256407,-0.43641796595591786,-0.13184397639573714,0.01493280387723498,-0.15430147475904193,-0.642202637641582,-0.22889983750997778,0.11089274515052326,0.017830521767281768,-0.45806630073838334,-0.047924461305280885,-0.30700883445990323,-0.24761422816266787,-0.15226244973075892,-0.011851200499689837,-0.10455377903244516,-0.037359825929020124,-0.40628384378893945,-0.11181651093962149,0.11130268508123815,0.07071500371837426,-0.5121042963594417,-0.4026790029545329,-0.30856496481711854,-0.23947320433002506,3
8.6,3.025,2.325,3.5,10.85,34.0,10.35,7.75,532.0,188.0,139.0,199.0,764.0,2360.0,723.0,474.0,14.0,15.0,12.0,16.0,21.0,23.0,23.0,14.0,0.05021624674930873,0.24223655966860963,-0.2771644503342394,0.046843986589753014,-0.23703304102564482,-0.13279840762581324,-0.3427435996043473,-0.22775592305588477,-0.2743542101337391,-0.05967123558570362,0.0927594689146509,-0.07209888481023004,-0.37408391914053724,-0.1340118023971991,-0.07708960425423453,-0.04384316267327117,-0.6262252210485001,-0.34940188660034766,-0.3773998252200155,-0.19001264360181874,-0.4768584086877319,-0.1944727517029274,-0.22694106255725868,-0.15085463649281522,-0.6227950429488748,-0.29606434356557015,-0.1859158389837546,-0.12648115980289196,-0.3455279203720714,-0.2895167419533704,-0.3099717772051868,-0.4115849702012845,3
9.0,3.0,2.425,3.2,8.05,30.9,8.925,7.525,595.0,179.0,120.0,187.0,547.0,2062.0,603.0,478.0,14.0,16.0,13.0,17.0,18.0,18.0,18.0,16.0,-0.1841242238671761,0.2673802718845696,0.0948380976848274,-0.036203272288852256,-0.12600615346889682,-0.07213841099461009,0.0779746547735299,0.03620229505276105,-0.12257551780047513,-0.1003201813735867,0.013305641902463252,-0.010917468649275829,-0.34687637337747795,-0.2586129532520242,-0.04226032545311032,-0.04260449627919364,-0.44001208902929323,-0.11459773656596471,-0.015058678059013455,-0.3602818520274608,-0.7106987202026234,-0.4960116721231555,-0.2677974642658566,-0.20690923584825732,-0.5690791342835005,-0.365346539158436,-0.26004543204396185,-0.34003137597053684,-0.5059068327131555,-0.3819756239971293,-0.36657930458935917,-0.19482136299863118,3
7.8,3.125,2.225,3.425,8.65,27.8,6.325,6.25,483.0,189.0,133.0,213.0,548.0,1771.0,431.0,348.0,15.0,12.0,16.0,20.0,16.0,20.0,20.0,17.0,-0.17148740150732436,-0.034675012318804314,-0.04643524461383814,-0.2315845633444951,-0.1231929849006,0.20294664273496626,0.1736888457582772,-0.24853565955949258,-0.052483066535894005,-0.364861480680189,0.14297310189454168,-0.43660157463719707,-0.2812794677368698,-0.4431948604168596,-0.13993839258849491,-0.265052184439068,-0.40060150912300563,-0.22703896029254722,-0.14023051099793912,-0.11682757827441952,-0.36144080918661464,-0.2066054210679134,-0.1423352276365111,-0.19557138007513167,-0.6816669465215212,-0.3755185499551369,-0.06693851014771958,-0.20934504356474395,-0.3503908588432822,-0.36760846351587134,-0.31076113334526784,-0.16468819658890307,3
8.2,2.75,2.125,3.15,9.45,29.075,8.975,6.825,477.0,168.0,123.0,178.0,624.0,1910.0,584.0,434.0,14.0,14.0,16.0,14.0,21.0,16.0,20.0,18.0,-0.08376408383052623,-0.2939358535076609,-0.07495386079567193,-0.32989179154206094,-0.07973056819646919,-0.16023994461434685,-0.11807440652791686,-0.08456443466897616,-0.24195912154442745,-0.31048285849893764,-0.26090192332150125,-0.38335147676835013,-0.39431847640248924,-0.42200716154122275,-0.42280051924711515,-0.18278539293129656,-0.3861653531106305,-0.20109176307340854,-0.27105974785755754,-0.3546158914877281,-0.38586726329329696,-0.45833242521347056,-0.13925581821113564,-0.332634820857341,-0.5191962171441749,-0.45633524792194025,-0.5118005966968503,-0.3170882999237987,-0.4863251893145795,-0.2811399957206758,-0.15471368909529742,-0.2500811574391597,3
7.475,2.625,2.225,2.3,10.675,24.15,8.15,8.275,449.0,162.0,126.0,138.0,670.0,1547.0,502.0,514.0,17.0,18.0,14.0,14.0,18.0,17.0,17.0,18.0,-0.379194261304398,-0.3132611135751118,-0.10830157234320682,-0.15330707105749547,-0.4692439533092269,-0.2259368395666771,0.1022767826397723,0.24219326937139268,-0.14130998189023672,-0.14686581048703753,-0.13656584293000965,-0.21181304873132664,-0.24973148167003748,-0.43717285865948646,-0.07471825260025187,-0.31192478965733345,-0.4945956527235187,-0.3446067270629217,-0.12358312683156557,-0.1674987137587573,-0.21030456847623297,-0.12956893142850162,0.18742810604612975,0.08119942686735507,-0.536384147412216,-0.4866315729937788,-0.43391435263653155,-0.1719163486721268,-0.7220290099377698,-0.6988569058148559,-0.518770103497875,-0.49093405449720623,3
7.5,2.775,2.9,3.425,10.775,36.825,12.175,8.975,527.0,154.0,163.0,175.0,753.0,2106.0,723.0,568.0,21.0,12.0,12.0,14.0,23.0,17.0,15.0,19.0,-0.34733275034529876,0.036930697567376915,-0.08063344042486942,-0.403070934428092,-0.027768753056099084,-0.17955464924247355,0.14823969847192675,-0.1704567083556196,-0.05287490871840801,-0.29025070652010676,0.06948946733338743,-0.36239381528391634,-0.09479412910397501,-0.4129823311496795,-0.02406489211881429,-0.2041096044018266,-0.7860036071854869,-0.6368628749955428,-0.5570925600305535,-0.32032830056799294,-0.232496720215793,-0.4071321530762795,-0.2025298197915446,-0.11956587204938374,-0.40792282962942616,-0.3842286020667758,-0.20060399314251937,-0.3509890562489868,-0.5393730718697034,-0.4608219121848853,-0.08385378756757464,-0.22603898041627274,3
10.75,2.4,2.375,2.75,9.125,27.75,7.775,7.9,738.0,147.0,128.0,167.0,609.0,1742.0,502.0,541.0,19.0,13.0,13.0,15.0,19.0,23.0,21.0,21.0,-0.3651890613013953,-0.05196257446296563,-0.1818424423079292,-0.44625028051309606,-0.2075697797539679,-0.0037129674340757573,-0.059967721481053005,0.2001864776209212,-0.025559431810692087,-0.06831646131175827,-0.25179723878281357,-0.1316646890754344,-0.36363655935582634,-0.19331342830212064,-0.2164891635320792,-0.3864273423004665,-0.6609033754717214,-0.47755980313631097,-0.35858100968343587,-0.15458339997761003,-0.5446265394665181,-0.4440562916500117,-0.5156436163879877,-0.35052077553208477,-0.5133554931864849,-0.23344521128121287,-0.46007657292207227,-0.12529609837797093,-0.5766325358526487,-0.06162118163440519,-0.3633212689159508,-0.28244093217018956,3
7.9,4.3,2.625,3.15,15.2,32.325,8.55,7.6,534.0,270.0,130.0,171.0,1070.0,2270.0,554.0,523.0,20.0,14.0,12.0,16.0,18.0,20.0,18.0,20.0,-0.17236918627305114,-0.09693517309069008,0.09035045198228293,-0.1636544653841709,-0.49380564096756646,-0.2979824936334553,-0.33106250534222764,-0.3562040586920143,0.1595275401857868,-0.3890452606456863,0.12272139080561867,-0.33119891397299656,-0.12407117713066111,-0.22019525958320374,-0.10037952410476181,-0.10377931430697357,-0.8872915261242909,-0.6263931550562946,-0.45947893156350184,-0.3014377433831349,-0.6371604837084098,-0.04123794107011646,-0.10466371273600963,-0.1793765069330305,-0.41285643036767045,-0.08757225569026914,-0.34626442279175473,-0.3249889644840566,-0.7521999566217774,-0.6638648283145623,-0.4622775488026356,-0.36530037629161155,3
7.225,3.3,2.825,3.75,12.2,34.7,7.675,6.425,470.0,189.0,143.0,229.0,790.0,2112.0,410.0,394.0,18.0,15.0,15.0,17.0,19.0,18.0,10.0,12.0,-0.17798799580158173,-0.14355863232778404,0.016516673080929443,-0.2633208442412935,-0.2542478097637612,-0.23194180840386922,-0.2998257809252792,-0.21661471248991906,0.08617333605467585,-0.1659739867824634,-0.33821529096271147,-0.14114406403892277,-0.24262304462058124,-0.00984370110596515,-0.04078195785201532,-0.1371709153054689,-0.8202954596839448,-0.5525404465354542,-0.26308075776530304,-0.25617239345361453,-0.3949010047910567,-0.152234229434251,-0.03984328777041203,-0.2665077171211793,-0.06096069674730525,-0.06148704190027778,-0.19089340329192034,-0.3458633366719039,-0.49138426042284594,-0.29082068466256833,-0.2716452026596427,-0.28772877847298833,3
7.25,3.225,3.3,3.95,10.825,26.6,8.675,7.675,445.0,180.0,158.0,218.0,696.0,1550.0,545.0,529.0,14.0,12.0,10.0,12.0,19.0,15.0,15.0,21.0,-0.09343565519408255,-0.33946107364510464,0.09716085255521827,-0.2443403676239038,-0.4483462525045329,-0.48588905118014825,-0.11646497113405352,-0.2917960450715528,0.03464857964161509,-0.23915367195706036,-0.10328499694515816,-0.38214111540210804,-0.17784674821480348,-0.04537387449651021,-0.06979686855504974,-0.23786221850980296,-0.667080937819253,-0.28278475767284933,-0.16190511951701778,-0.21100997900847396,-0.1388227365124065,-0.11090487367682728,0.029386021205112682,-0.3411650414619694,-0.18273289734112982,-0.09275617870742935,-0.057512584476675795,-0.21933287470950366,-0.5283024969377961,-0.1721974471749871,-0.29033518196665914,-0.31054630907467023,3
7.225,3.4,2.7,3.675,9.025,21.275,6.75,8.15,475.0,228.0,151.0,231.0,582.0,1379.0,416.0,560.0,22.0,14.0,16.0,20.0,19.0,16.0,16.0,18.0,-0.562643090793843,-0.21720589749271066,-0.2884956111226588,-0.08877795664476056,-0.30760667374072975,0.13587499772918904,-0.1792975447802114,-0.021994183370215827,-0.15574653865414373,-0.04867382871117434,-0.03901212971111962,-0.30882760995786407,-0.2905749096434785,-0.16898094249353077,-0.12083409928917577,-0.13009660908921475,-0.8215046601857131,-0.7271041327229093,-0.3151888893981866,-0.26656808384170494,-0.5046221210179512,-0.33158796425745196,0.02690380708641036,-0.049356355901942484,-0.2718968329841626,-0.331480536404741,-0.045865213458444014,-0.20695863455230623,-0.4730005935772169,-0.2859050120466921,-0.07304414287483985,-0.24837315302345078,3
7.05,3.175,2.375,3.5,8.475,22.625,6.05,8.45,481.0,224.0,150.0,216.0,532.0,1427.0,323.0,529.0,20.0,18.0,16.0,14.0,17.0,16.0,12.0,14.0,-0.20539137470716737,0.11549815791894091,-0.2453640025473357,-0.19088697988018757,-0.5433949774421385,-0.15171951090163582,-0.10942500930106593,-0.08938947391409213,-0.532660070387711,-0.2467464855675586,-0.5070147362013246,-0.3628562112853957,-0.47523757392882865,-0.3318575313550829,-0.39764569300382835,-0.3189164037043079,-0.45250093737282965,-0.4459713879299941,-0.1506263002256743,-0.28898813198480017,-0.31884744244863317,-0.17172413257126803,-0.09094656992477167,-0.2673490487534602,-0.18909602796140898,-0.12022702309471026,-0.3137856370448602,-0.28000276438233257,-0.10028872521615059,-0.06413800586385332,-0.15138335715621945,-0.2350095004153842,3
9.4,2.925,1.775,3.225,11.375,26.5,9.5,10.35,606.0,188.0,96.0,216.0,745.0,1517.0,616.0,691.0,16.0,14.0,16.0,18.0,19.0,16.0,16.0,20.0,-0.38904492980942235,-0.34720606637822,-0.30398408604161875,-0.1265931757800084,-0.0807571382759457,0.03255166607960998,0.4005780655637671,-0.1840411415477222,-0.23778538136333824,-0.011306283700644935,-0.13249277504779597,-0.1822287805196682,-0.4630597072110059,-0.22369564075360737,-0.07860989442687065,-0.07214396989871164,-0.5511742126025685,-0.3394371501664656,-0.15347296040193834,-0.07093004769687213,-0.12509664870783954,-0.09396654202152006,0.03195263824819899,0.04819594560462164,-0.4068076034752137,0.0153459012533589,0.002668896917105016,-0.2626535830509424,-0.3725337592825273,-0.16258720627369222,-0.34687030312574335,-0.34614542367916223,3
9.775,2.9,2.075,2.925,8.05,25.075,9.15,9.725,548.0,180.0,127.0,179.0,511.0,1489.0,636.0,577.0,13.0,16.0,13.0,11.0,17.0,20.0,17.0,17.0,-0.08332937379414325,-0.3461667755090491,-0.298750129829713,-0.2139857652012641,-0.16731785051987372,-0.013562512849238194,0.0927348446139036,-0.23748883738746115,-0.6424875760375346,-0.4939605915219941,-0.3174316284341825,-0.10027350711712267,-0.28873876518177055,-0.16524409249699493,-0.06940796725270684,-0.08399927878568116,-0.40497895619475455,-0.44586711643690785,-0.27963020593650395,-0.21534935841782837,-0.21880737890247365,-0.11526611383621348,-0.2213813691595481,-0.013008509353595377,-0.6918629780116895,-0.38723711611323375,-0.28657864940085204,-0.22754786302284244,-0.32869134985059095,-0.2548967227182891,-0.2598011994389769,-0.24354508336487082,3
6.75,2.0,1.825,2.875,7.375,23.05,7.0,7.575,411.0,142.0,123.0,163.0,463.0,1499.0,413.0,446.0,11.0,21.0,16.0,15.0,15.0,18.0,15.0,16.0,0.002883859450049072,-0.20845798552888917,-0.03984934062477098,-0.32399861228171856,-0.49437033499589433,-0.26048518962763273,-0.30861581038350233,-0.25443804405002174,-0.7527642871764317,-0.4891137104076777,-0.3951850849712773,-0.37284759606769413,-0.21540183035050808,0.009450792759480275,-0.14402176561241603,-0.10753803017351896,-0.36704633361616196,-0.3133403108861417,-0.20542643403979116,-0.24303914533362114,-0.36876766131993177,0.04062427105118851,-0.24430819852470068,-0.2966905617121037,-0.4161261836695111,-0.4062659936975413,-0.23916017707525192,-0.2627076516136177,-0.2926799739452467,-0.053358358495627485,-0.0419138405923052,-0.06316280752254091,3
8.875,2.525,2.425,3.85,7.525,21.075,9.1,7.675,580.0,144.0,124.0,214.0,478.0,1404.0,584.0,512.0,17.0,13.0,13.0,16.0,18.0,18.0,16.0,16.0,-0.24992704840384897,-0.2159688424725383,0.0038487664781356053,-0.28040572250940765,-0.19447798277344444,0.13817740904497802,-0.19232519630869285,-0.5759625868294261,-0.023498142257240097,-0.14608817144213201,-0.06753848297548797,-0.23481374159977314,-0.25701822914189415,-0.1725432803439526,-0.013314214792133057,-0.365225881651374,-0.3894388448558068,-0.23804194667655712,-0.09618686828187648,-0.266606411858896,-0.3890302934031233,-0.21395625288904357,-0.274739751564137,-0.47394318626276793,-0.4242675341881685,-0.2706790245180875,-0.3473491693890174,-0.3659255630373989,-0.25800496261675465,0.09778227640447162,-0.04760292092270405,-0.2269458012362202,3
8.725,2.875,2.45,3.75,8.575,21.175,9.425,7.9,521.0,185.0,140.0,212.0,546.0,1252.0,560.0,479.0,17.0,10.0,10.0,16.0,21.0,19.0,16.0,15.0,-0.009209196091604008,-0.14606985180202278,0.09072279636723483,-0.35989211267340215,-0.25104890161316723,-0.08588561087748224,-0.18692371516062523,-0.2984302657838737,-0.12030889858033786,-0.1828992320424636,-0.1414219602768795,-0.3049219435840899,-0.1412108269122414,-0.13928266022112762,-0.0764584842762688,-0.6271253194160017,-0.28272688529134676,-0.17090417014223933,-0.2514814004495325,-0.22460261229691025,-0.05837709990701986,-0.16897035781153388,0.06592626531246809,-0.21076759163430744,-0.16903799408691408,-0.5303495174248454,-0.04126049680858282,-0.4348275370758254,-0.30586915571285433,-0.21387895347797498,-0.10725942682634035,-0.21881524572362998,3
8.0,3.325,2.35,3.725,9.2,28.175,8.175,7.85,537.0,229.0,150.0,222.0,575.0,1828.0,503.0,484.0,20.0,21.0,16.0,18.0,15.0,21.0,21.0,17.0,-0.2809603317381536,-0.03473933124599307,-0.3266662600961427,-0.2564577843968677,-0.6008091159510338,-0.2796632964374124,-0.36932933607508717,-0.19418711001822705,-0.21155001396677145,0.060458279524073934,-0.3018086465970843,-0.4126634581830035,-0.17251757662854433,0.24275609687488772,-0.28952453888200075,-0.38671588334717055,-0.16715679409564202,-0.18159423631868432,0.11921561580707989,-0.10082539301639624,-0.33635671245437315,-0.12335373753727906,0.020011119279413323,-0.1656456584575683,-0.31188487376931917,-0.26010678583119545,0.003215279555310615,-0.17426346188706412,-0.4375297116159675,-0.31534167097476246,-0.18178090123409313,-0.45896494781190145,3
7.775,2.05,1.625,2.725,10.925,28.625,7.725,7.4,488.0,113.0,91.0,173.0,693.0,1683.0,531.0,455.0,14.0,9.0,8.0,13.0,17.0,15.0,14.0,17.0,-0.32949373660952347,-0.1813052022312439,-0.2407652300862021,-0.07931639764182892,-0.3104967944369015,0.05751776633794787,0.01688860880878773,0.20871851925848434,-0.049625401116456275,-0.04778269945940904,-0.1164951091672037,-0.12059124938770295,-0.29212700838013533,0.0744799196904799,-0.16965208978838256,-0.3205316236815479,-0.4078194804115763,0.09153134238297013,-0.10747857451584085,-0.44935292449753095,-0.2219479590741423,-0.3111860399005984,-0.2506143895801955,-0.24517729517524064,-0.47081519019982676,-0.23887974336844006,-0.10901736174164321,-0.06882280008813697,-0.42624084590415184,-0.4586697801915767,-0.42386114877537134,-0.417410940928882,3
7.075,3.25,2.55,3.175,12.475,26.225,8.05,9.025,489.0,213.0,139.0,209.0,817.0,1676.0,550.0,560.0,15.0,14.0,14.0,14.0,20.0,16.0,18.0,17.0,-0.38489874308360583,0.04154128883967884,0.27534568520593505,-0.04971467686442799,-0.34151571196591274,0.1378555086055438,-0.11116046026715226,-0.2645706693193406,-0.2536028178272824,-0.19791977919598522,-0.0604965004464043,-0.03536762592736391,-0.6197461436749777,-0.21000524407380192,-0.1290192703784456,-0.013689240060122005,-0.5663021013916584,-0.5341176721739539,-0.4061548279114859,-0.49713006466849985,-0.2873889650097865,-0.09005166067337127,-0.13867323893464806,0.03368751523374991,-0.6003366986206594,-0.44181137062107695,-0.21346893397610558,-0.28566371602014895,-0.40562748758925565,-0.25485225917228377,-0.20753926737598932,-0.05789264154434061,3
7.075,3.975,2.25,3.325,10.825,25.325,7.225,6.35,434.0,254.0,116.0,196.0,720.0,1611.0,480.0,382.0,14.0,17.0,11.0,10.0,17.0,16.0,20.0,17.0,-0.09148863726977496,0.2459570614063037,0.21358010666901778,-0.42126845623645787,-0.306939988568475,0.03210024097886018,-0.18709572141007097,-0.3934485064515824,-0.09054993592175546,-0.3172564048809408,-0.10317939779370444,-0.38279212924006656,-0.2408144954214566,-0.014546597878369292,-0.187812641061547,-0.29600373705523786,-0.9813635718227476,-0.8798421627518713,-0.6082990780983853,-0.23673414052388275,-0.3713164149598377,-0.18978482319278386,-0.19304589363652178,-0.14147608226277722,-0.6577975340661978,-0.4315328327877125,-0.22375568154654288,-0.2963285978444753,-0.30886994128162076,-0.2310103692746046,0.026055098609617723,-0.194118111261426,3
9.25,3.3,1.85,2.15,9.725,28.575,6.025,6.9,523.0,176.0,94.0,104.0,628.0,1819.0,355.0,396.0,17.0,14.0,9.0,10.0,15.0,19.0,16.0,19.0,-0.27109558565201997,-0.2976968041865466,0.009208274898480005,-0.23841394315195175,0.013352172543241685,0.12450604130430465,-0.2537671807112857,-0.00023044188712836058,0.1305984440072452,-0.13277437345112258,0.13028779179570674,-0.20571957159747942,0.032394653930027724,0.03621780117798676,0.030248499543919335,-0.10668129571629255,-0.3281668146436028,-0.1282813000258825,0.006818056994021364,0.1513722594917371,-0.4538587060740214,-0.23157556149766512,-0.14625076943736962,-0.0071622493987773955,-0.30142586280578765,-0.2859958966011905,0.11923049174003676,0.0044888536395836665,0.004657887196081093,-0.30547987532324045,0.00908843518926639,-0.3814141316142018,3
7.825,3.425,2.3,3.15,12.675,36.6,8.3,8.45,525.0,208.0,146.0,205.0,880.0,2480.0,576.0,466.0,14.0,19.0,16.0,19.0,23.0,22.0,19.0,17.0,-0.5802865280127795,-0.3266601529525328,0.002159012029807643,-0.19464008351682155,-0.3965389402751878,-0.12764733057987593,-0.3225070665210158,-0.5359356277420348,-0.41925056138293504,-0.398157598578816,-0.18538557880954115,-0.5359784737096213,-0.4879383507785615,-0.1900456979833615,-0.11650028154421,-0.29113796196264263,-0.6030409155814669,-0.3017884418360063,-0.035713868070959,0.012227902081760804,-0.5845539811064832,-0.1317589534708702,-0.04612800898193306,-0.1768670219484972,-0.5587438577162784,-0.2527977818660233,-0.011477535254437721,0.13347970220803113,-0.18291848600919322,-0.31887455451983016,-0.058677728429250016,-0.33963254959020134,3
7.775,3.275,2.35,2.975,10.3,30.9,7.275,7.15,523.0,211.0,149.0,185.0,649.0,1918.0,477.0,401.0,22.0,16.0,18.0,14.0,18.0,18.0,20.0,14.0,-0.3906862151603097,-0.15661758237485013,-0.12673859211306146,-0.40599475359232295,-0.3528236038375744,-0.011017865153701237,0.04464466399585808,-0.23186816924920403,-0.489899222395371,-0.1593513540649704,-0.10873688567348687,-0.21971393995894856,-0.5084815433326935,-0.20195054849121605,-0.3286911806208972,-0.3812362186766881,-0.3071319796389009,-0.1290350555199279,-0.3045866306125917,-0.15752130070326179,-0.485173346881837,-0.3424571499065996,-0.2120665488959538,-0.17624463890214662,-0.45120003082339716,-0.3629189888708185,-0.09621915408231667,-0.25517649538491977,-0.4812084427148609,-0.3916543415351689,-0.37682371730873776,-0.23958886373408345,3
7.55,3.35,1.8,2.375,8.75,30.325,8.675,8.025,502.0,218.0,111.0,163.0,611.0,1959.0,600.0,498.0,15.0,16.0,10.0,14.0,22.0,19.0,17.0,17.0,-0.27613106585844227,-0.2477918720161532,0.07040053856710969,-0.36842900958656005,-0.23872785914924338,-0.015278913766416135,0.17587333762551216,-0.14955144626667644,-0.24044194952612963,0.17806369270454164,-0.029461334966002423,-0.029820605766215678,-0.41058633850619475,0.3104849679256397,-0.042552570389899166,-0.25925296708782114,-0.5292854059777828,-0.1864672100192534,-0.2159259041459991,0.035367442952268145,-0.5627571178014461,-0.19310136343163192,-0.385686809049637,-0.4643015104291908,-0.5806105854272064,-0.24760383058281793,-0.36027208756655965,-0.3809086200341011,-0.32093934312863504,-0.29180194862508724,-0.27509932200667736,-0.5632368897380845,3
9.425,3.475,2.475,2.85,8.2,27.125,9.0,8.15,614.0,195.0,112.0,170.0,549.0,1655.0,577.0,503.0,18.0,13.0,10.0,12.0,20.0,17.0,17.0,18.0,-0.4720390757324557,-0.5177956388788527,-0.09052858045442319,-0.2736876987229082,-0.1280689318410193,-0.5606302848140274,-0.03850207486826064,-0.2869417804973286,0.31803112533899613,-0.3795675917381908,-0.1619889650627482,-0.18330508801684042,-0.16293137955581008,0.04018565089015405,-0.31450601068731676,-0.22875162032098176,-0.22551417678038793,-0.09339646052263148,0.011666349104697148,-0.24376549892961114,-0.457466025032154,-0.10773390125818283,-0.30351524338444413,-0.40978659254161987,-0.344818818706829,0.13051335422009686,-0.3719430007705852,-0.28946501482211756,-0.3056645995433047,-0.4347031968794066,-0.0023510748958243087,-0.3980180637186661,3
10.625,2.9,2.275,3.15,9.15,24.275,9.875,7.55,633.0,167.0,124.0,175.0,514.0,1420.0,606.0,507.0,17.0,10.0,11.0,13.0,14.0,19.0,18.0,16.0,-0.26398109255012825,-0.2607914766338561,-0.12332669428209672,-0.2616062583430888,-0.11039135565420856,0.01794877773107225,-0.05925459646233473,-0.38752877007213227,-0.11435157419190671,0.13276894127844982,-0.12355925344210618,-0.2055353899504038,-0.14727473595809124,0.05130889898531752,-0.14264544951306557,-0.3177866436872218,-0.2842470429282079,-0.36127244077305326,-0.15341822270130656,-0.20686577509817514,-0.20438055707275327,0.09822785236433125,-0.10527947544500937,-0.22719132599068434,-0.4216694626442128,-0.12211040808483385,-0.22110404338483694,-0.2346194833566093,-0.45569593433758304,-0.1893089668532087,-0.18329029032735186,-0.2580169663989922,3
7.9,3.15,2.5,3.75,10.375,32.375,9.375,6.275,409.0,225.0,156.0,233.0,677.0,2099.0,636.0,415.0,12.0,16.0,16.0,19.0,17.0,17.0,22.0,15.0,-0.09871144669255627,-0.26539382096649683,-0.25583151490190176,-0.44529319084859104,-0.6517731390990954,-0.5989801615951857,-0.39903878129257625,-0.47438929835516186,-0.40441951015702426,-0.20811427686873865,-0.03212351779557255,-0.08269259316649405,-0.4317873349778311,-0.13974273688837013,0.22368981203581292,0.06126637459579258,-0.3826794403715239,-0.3442416409554264,-0.14609111717093196,-0.36505740138940923,-0.5088259839851589,-0.22819999812580888,-0.13704267027205047,-0.28383889887596775,-0.537158329837135,-0.2893612860959391,0.015156463671317372,-0.16064134041922104,-0.3727802744784022,-0.26663557910420743,-0.4212517283696248,0.07903421020817199,3
7.15,2.625,1.975,2.6,7.9,21.475,7.175,8.675,436.0,153.0,94.0,157.0,470.0,1451.0,486.0,522.0,16.0,13.0,11.0,11.0,14.0,19.0,17.0,16.0,-0.30065737994144304,-0.3652905406876624,-0.30370039256814335,-0.24490271766914157,-0.08916784637714005,-0.3442061895833908,-0.15783811076453147,-0.30481414060480144,0.024934634226871755,-0.34694448397923916,-0.1166753328012918,-0.16419676056372087,-0.4395836798250469,-0.3116756171820877,-0.16227542936868058,-0.22555677135244445,-0.28785382582213054,-0.14296489937511145,-0.13475742650857656,-0.27255962056518607,-0.5303917092664472,-0.08396126430851124,-0.008323430210100465,-0.04293412828662254,-0.4742472952932266,-0.36477258576041427,-0.22927430772944335,-0.36254452127789777,-0.3608669811423236,-0.2845614154187014,-0.16680145763964235,-0.404791921130149,3
7.725,3.375,2.225,2.75,8.95,25.725,10.4,10.3,439.0,209.0,130.0,166.0,636.0,1745.0,746.0,670.0,15.0,18.0,14.0,15.0,22.0,18.0,19.0,20.0,-0.15707312875150925,-0.2852096796201372,-0.25768224837614045,-0.1084422297143844,-0.22569251800854015,-0.21688560640132878,-0.008241405069156965,-0.27177024379145315,-0.24029046476141994,-0.26954570375767123,-0.3193049473965165,-0.31763174405823813,-0.4268163940538121,-0.4814534494100407,0.04067684880672123,-0.023636850341801366,-0.590003469916955,-0.036669623527221085,0.09155375732256991,-0.2510527525397085,-0.3301715689410002,0.07939509017985395,0.1282309591615059,-0.13614379699357945,-0.7936741057171398,-0.42631004103707254,-0.27108194192251844,-0.1461795112167959,-0.562920261646391,-0.29191227912553724,-0.38208678930097745,-0.4276190740191801,3
9.075,3.525,2.45,3.5,8.65,23.175,6.925,8.75,548.0,209.0,149.0,203.0,608.0,1593.0,423.0,515.0,13.0,12.0,16.0,16.0,18.0,20.0,19.0,15.0,-0.039513481636190166,-0.06266429759904081,-0.25467500339211746,-0.16493311842892294,-0.3695100043240683,-0.4863630539956533,-0.310795467743342,-0.24828700070406345,-0.5411290719960579,-0.4615311807952195,-0.4015281805822963,-0.37663986535488725,-0.4387909895492779,-0.594813405883078,-0.22799325602903217,-0.2988450449530458,-0.3975789379922895,0.1311052284787628,-0.05970694380572714,-0.1879776734227187,-0.3635512449197393,0.021807360877589402,0.214570321780414,-0.0011525121794370935,-0.5352674203700422,-0.32688379646368115,-0.1854075220128024,-0.11118040653746547,-0.20525745194637063,-0.6635560562022749,-0.17676425694576675,-0.3377244080839913,3
9.425,2.775,1.7,2.425,10.75,27.525,8.05,9.0,634.0,173.0,100.0,142.0,639.0,1757.0,494.0,611.0,21.0,15.0,8.0,12.0,15.0,21.0,17.0,21.0,-0.4166014213538539,-0.05949604899012763,-0.32723711316839826,-0.33648983873543925,-0.47580687472315236,-0.2843222428505031,-0.3567144714497144,-0.421695557532203,-0.4838981450603242,-0.3867078139541219,-0.18919206417167375,-0.15966432804141864,-0.23121926814704172,-0.26603612425742773,0.009161446792988482,0.14989682001249144,-0.5318186226323638,-0.3455460951145982,-0.49819550917468963,-0.36311503626302377,-0.4299643465294556,-0.21611741375832277,0.12093723226646542,0.025081786387534204,-0.3975374586015291,-0.14587122595585178,-0.05051808380600285,0.04975342306981721,-0.44826403248275437,-0.1964764907643258,-0.23089448689612652,-0.3936284005012592,3
11.35,3.475,2.075,2.675,13.175,28.975,9.7,8.975,784.0,221.0,112.0,130.0,889.0,1999.0,574.0,515.0,21.0,17.0,15.0,11.0,20.0,17.0,17.0,12.0,-0.5333992716849233,-0.3633849260546189,-0.14411106063608084,-0.05284459169430667,-0.3760669756524772,-0.3060294889001647,-0.15297478164807904,-0.22169095630997535,-0.17231660165275772,-0.21405708447797553,-0.07701945450694689,-0.2140982113016216,0.23003470418556787,-0.13572939162543055,-0.34831007349283954,0.17096213090130621,-0.7032477994058552,-0.43005746338083317,-0.2298250404453955,-0.17647887032210474,-0.44933329670287336,-0.04483268757381993,-0.02661729255240473,-0.09289921130007765,-0.17588174120483563,-0.2788611275327191,-0.07909569180822276,-0.20260322011717966,-0.39706711549427537,-0.24463135544308062,0.10070797784388577,0.058271029062787055,3
