0,1,2,3,4,5,6,7,8,9,10,11,12,13,14,15,16,17,18,19,20,21,22,23,24,25,26,27,28,29,30,31,32,33,34,35,36,37,38,39,40,41,42,43,44,45,46,47,48,49,50,51,52,53,54,55,Gesture
12.9,2.175,1.65,2.45,13.325,14.625,1.925,3.975,856.0,112.0,84.0,149.0,850.0,937.0,105.0,252.0,17.0,12.0,5.0,16.0,20.0,18.0,10.0,14.0,-0.3378168965213764,-0.21010344334147646,-0.2677129277821719,-0.24107711846305682,0.00446058257437657,-0.24709978612774453,-0.38221154602579516,-0.025569335396779254,-0.2741946732824658,-0.2838253997607982,-0.3122087373575984,-0.16932017312557715,-0.6174382418224338,-0.36480344607823595,-0.4346849236097076,-0.4996199046004268,-0.4568757013358441,-0.2330559566310489,-0.041443283733356914,-0.21575240372179982,-0.5064487111698341,-0.13132161517168103,-0.17361822543971459,-0.22563855912237177,-0.10116166255514514,-0.2093473068141806,0.03380067102566685,-0.0981347126718634,-0.4307352942829484,-0.21263080863970954,-0.04941664374805971,-0.24551644024467326,1
8.375,2.2,1.425,2.325,13.275,14.0,1.55,3.325,495.0,122.0,78.0,152.0,827.0,882.0,104.0,169.0,11.0,14.0,10.0,14.0,15.0,20.0,14.0,16.0,-0.19043564784293562,-0.164273325801621,-0.33839599878288457,-0.0897331986758664,-0.2955177020601712,-0.31388432079704087,-0.23544427572152726,-0.20057912416442308,-0.06597817407893972,-0.1231336575381794,0.06341259363468012,0.07207082425853051,-0.49461897414895806,-0.2842408614862253,-0.2703148405238421,-0.24524990208213412,-0.4267166650578982,-0.3185933955468711,-0.22644854614367996,-0.17906759291006677,-0.3455904599769352,-0.311653110975989,-0.3123897623343915,-0.20795002680030597,-0.5728571843737366,-0.19983337799581685,-0.006088873542696941,0.05910825425501537,-0.0667977736696327,-0.27020449293734,-0.30597215626882746,-0.023721835105163187,1
8.1,2.35,1.95,2.925,15.95,17.3,1.625,4.925,504.0,138.0,110.0,194.0,1037.0,1122.0,93.0,320.0,16.0,13.0,14.0,18.0,15.0,18.0,14.0,20.0,-0.23093525396164946,-0.22044766236610325,-0.07731639683743323,0.036422689684434635,-0.386846902775999,-0.3521327478306,-0.2951145134607494,-0.24407769914651078,-0.2604070740658336,-0.36444592534292786,-0.33508117103979923,-0.2842611661813338,-0.7635765723107939,-0.5816130789980711,-0.6755542402338185,-0.4824639942020067,-0.547613573817283,-0.673376983945235,-0.44156090923571784,-0.48155889877842345,-0.754505662704565,-0.6103144246385028,-0.7748520815679758,-0.4518993089231099,-0.42996301179089996,-0.4861038931864013,-0.2791878202984227,-0.17083526537012778,-0.6280713922948507,-0.3419903397877274,-0.09378213262309935,-0.21573246872944712,1
10.3,2.2,1.55,2.4,12.625,13.7,1.75,3.75,666.0,121.0,85.0,139.0,892.0,872.0,101.0,233.0,18.0,13.0,12.0,12.0,25.0,19.0,10.0,17.0,-0.580250327272612,-0.5517196354809832,-0.4274128571481546,-0.32434307660918393,-0.22210677501469642,-0.2347961390883453,-0.13367291879852225,0.06830546031301932,-0.31436333324703514,-0.18758026759454532,-0.20218213715583686,-0.06931758324135937,-0.42394506229060336,-0.3059507403759343,-0.15695381113303294,-0.16230432644890266,-0.4757466399519755,0.1862481355605825,-0.314029563583587,-0.45666595575553637,-0.640123149605949,-0.4627110940667095,-0.5336594115394601,-0.44104004068820535,-0.06170156747092273,-0.017457288798491344,0.10061213806129389,-0.276371058647402,-0.5619051228549127,-0.4373183718379113,-0.35287493805072173,-0.41166432824142846,1
10.625,2.2,1.9,2.5,15.825,14.5,1.725,3.925,740.0,133.0,107.0,168.0,1131.0,1029.0,103.0,222.0,18.0,12.0,10.0,10.0,25.0,20.0,11.0,13.0,-0.4760844243481064,-0.18950783622927136,-0.24836577259870635,-0.4428540801254612,-0.26531499140738846,-0.22994948436962837,-0.3340076202830534,-0.5161714133307598,-0.256327030523165,-0.18224025446987924,-0.2459736286655425,-0.3156732613398676,-0.7064686823217932,-0.24345293405675913,0.029614770083545582,-0.08276948272698194,-0.627377686680033,-0.15234950446320525,-0.27392729093283164,-0.2112903716963309,-0.5746977788927853,-0.21536797488683423,-0.4120186394233528,-0.42927381756656563,-0.2798280322256091,-0.22630875441916207,-0.1701094298618407,-0.09737587184366892,-0.14431343038777705,-0.2569164310163051,-0.12340953131972385,-0.3164195488511238,1
9.675,2.8,2.35,2.775,14.8,11.75,1.85,4.675,621.0,163.0,133.0,159.0,966.0,742.0,112.0,302.0,17.0,16.0,16.0,14.0,17.0,16.0,15.0,19.0,-0.35733464841183876,-0.2226260934487182,-0.04774922235585131,-0.31882944795823925,-0.31880307045981626,-0.36031162429089186,-0.14935311948675523,-0.3034409725114037,-0.41411936297442736,-0.11705413365732706,-0.25868274127304053,-0.33163380677103627,-0.38941224126102486,-0.41346505408104045,-0.33255458679671535,-0.3907058133327279,-0.5569649751442654,-0.49632019324464705,-0.3179361138348792,-0.021853004023234233,-0.13204489309133977,-0.3744103891044334,-0.13514813165189984,-0.2695987165005927,-0.39999506698285847,-0.42810717061093045,-0.1324114838218562,-0.30207832897900216,-0.39556725763663364,-0.2606706861835574,0.060778278247811,-0.18655352220920973,1
11.3,2.325,1.825,2.45,16.6,11.775,1.475,3.975,680.0,148.0,107.0,132.0,1121.0,677.0,98.0,251.0,18.0,13.0,13.0,11.0,20.0,17.0,15.0,17.0,-0.3905020764598013,-0.30907416116896796,-0.2101545840478186,-0.20427464911683232,-0.3456397713574448,-0.2008677358633622,-0.08850116471181488,-0.06935734344154049,-0.6271707166398243,-0.5275923874602726,-0.5013939283692084,-0.22483660672700193,-0.381551215400334,-0.47943907188556706,-0.4874321537905073,-0.2090622995797601,-0.6716665282815232,-0.5016332614500979,-0.3971000796447306,-0.32020247776634464,-0.189908008527887,-0.3028390179964503,-0.19864804004752126,-0.09864045750761191,-0.34214583580290975,-0.05179344942995939,0.1384253952997057,-0.022380702901916485,-0.3460446838007379,-0.2752119093921619,-0.17034645106446508,-0.26513676219587945,1
10.9,2.0,1.925,2.825,15.9,14.025,1.775,3.375,664.0,121.0,110.0,183.0,1043.0,856.0,108.0,222.0,14.0,10.0,15.0,17.0,16.0,19.0,15.0,15.0,-0.44105751027836376,-0.34432404073635164,-0.38398009496460983,-0.3910594049162418,-0.14464849036117616,-0.1967234430502967,-0.16351858882568468,-0.03213099803923322,-0.24713610133519298,-0.20770709962672812,0.11646373069929498,-0.09263968508675625,-0.6600364202110005,-0.442337180738818,0.05883635651544565,-0.03064069323874645,-0.5369266360477624,-0.4373925439950246,-0.3547765018403206,-0.33428104518633045,-0.38140115311257217,-0.35913200283653895,-0.3794728801300419,-0.20882389765288295,-0.2678890162226249,-0.13384326229320034,-0.09088596896484576,-0.2038076183605189,-0.3513302259386702,-0.11792547469075007,-0.34704569385775597,-0.19340547310628634,1
10.5,1.775,1.7,2.0,16.5,14.275,1.675,4.0,733.0,102.0,106.0,133.0,1102.0,925.0,99.0,247.0,19.0,7.0,12.0,12.0,20.0,16.0,8.0,16.0,-0.391986110945783,-0.09579206279435604,-0.006731805242111638,-0.20755331172374855,-0.2350873122231172,-0.062272854156648134,-0.07267373548271513,-0.22893875852910872,-0.26894654961332254,-0.01712433925981075,-0.1662584663288537,-0.4086156750619737,-0.4134141237302861,-0.09461519067920396,-0.24673185680136486,-0.4395239415533434,-0.5444511086579322,-0.5808150264569015,-0.1369940154996497,-0.18919005486169826,-0.4060286440735542,-0.4724420771755667,-0.24715989651180906,-0.39509022048982867,-0.09240801974504362,-0.20364249852672123,0.06098239898968651,-0.20149068252485544,-0.4973845056407327,-0.295646358345987,-0.13433788951413433,0.07429753704210114,1
9.95,2.125,1.7,1.975,17.75,14.575,1.65,3.4,660.0,113.0,99.0,104.0,1020.0,902.0,98.0,215.0,17.0,13.0,13.0,12.0,17.0,17.0,12.0,15.0,-0.4675214075011367,-0.36165749490890015,0.03494969070549834,-0.18172198014972185,-0.3576756742658582,-0.5365518034664486,-0.06581533474301865,-0.32222393789560383,-0.27757984651931994,-0.12045162069272645,0.02541309630154531,-0.2008006888526673,-0.16626567657618901,-0.4904853061963648,-0.27761900240976417,-0.21264253332668195,-0.32364642592071624,-0.38813686558612664,-0.30520616541947315,-0.17078707229673493,-0.205218491989977,-0.3723803060301966,-0.21268779883897043,-0.2507070176551517,-0.06822793727546105,-0.19517808154088842,0.016982806933399715,-0.08196826290270694,-0.4648150797208312,-0.289787326060523,-0.225750700529347,-0.08609012501366095,1
8.975,2.1,1.775,1.925,18.8,14.05,1.65,3.625,555.0,113.0,87.0,107.0,1246.0,914.0,100.0,236.0,11.0,12.0,10.0,15.0,17.0,16.0,12.0,19.0,-0.34027859202185823,-0.5291313706651022,-0.2027645236519389,-0.4693868595271927,-0.24885522410578162,-0.4916430091593681,-0.22044728573149044,-0.4000198600021857,-0.0804655406826996,-0.2364480280811349,-0.1102317437977649,-0.035433522460925675,-0.11233135095329214,-0.06690945909753337,-0.0342666079522311,-0.25737320735100583,-0.8004846049733971,-0.7311968473403112,-0.5264044348669779,-0.4491068112886902,-0.599245498073471,-0.8272882635453859,-0.5886758769834272,-0.5361362809306394,-0.17036266819097465,-0.06854815241313504,0.11663217645640911,-0.18425889156721872,-0.343276461779795,-0.5500318175749884,-0.24231397868039534,-0.4278856540864719,1
10.25,1.775,1.9,1.875,17.925,13.95,1.75,3.225,603.0,110.0,96.0,111.0,1185.0,825.0,106.0,216.0,16.0,16.0,16.0,18.0,21.0,14.0,14.0,16.0,-0.39452969327578336,-0.31570971683663185,-0.3812422797066227,-0.2191920032303353,-0.16793349015881734,-0.3850751613263068,-0.09887860637044489,-0.46200221776528944,-0.2320168186230387,-0.03901357769862402,-0.3545481440342425,-0.3129401658118897,-0.28499869280126605,0.08672352885156438,-0.2442458427676716,-0.36110801174395707,-0.46041868061226093,-0.28435696737033694,-0.06097590989178424,-0.17095814503450535,-0.14400520771947642,-0.3694321074457512,-0.14747356793939057,-0.39753605701250316,-0.32561025693650897,-0.2172693027891008,-0.44229961679706575,-0.1705872035244229,-0.37061764326134483,-0.00653209202579016,-0.11845917453034631,-0.0153831418146884,1
10.975,3.075,2.2,2.4,16.65,15.175,1.65,4.65,725.0,221.0,140.0,132.0,1011.0,823.0,103.0,290.0,18.0,24.0,12.0,12.0,14.0,12.0,11.0,18.0,-0.500339350638463,-0.360804668842992,-0.11683622129783185,-0.07382273321210811,-0.8493178821704738,-0.4790075610058021,-0.1941884650611609,-0.13934613322488873,-0.3578225555350286,0.007536821575200678,-0.32750137626801223,-0.5539481267571826,-0.2223256177065978,-0.2909688828104553,-0.2057993047894321,-0.26358378039379127,-0.5032459276398326,-0.5306330526077594,-0.49617353275571574,-0.47613910239907997,-0.23862455740045846,-0.5309663372469264,-0.3216362548057105,-0.5116600858142621,-0.3539331696363188,0.1123128879087024,-0.04975491497975869,-0.0950624340360815,-0.37185080000103193,-0.34372828338845374,-0.23167360461578426,-0.5434087940952911,1
11.325,2.6,1.775,2.725,16.55,12.425,1.8,5.15,673.0,160.0,98.0,168.0,907.0,580.0,96.0,340.0,14.0,11.0,12.0,17.0,11.0,10.0,11.0,20.0,-0.4152582862601135,-0.4343697795135018,-0.3738005169697546,-0.2974495528207541,-0.2920334792553415,0.010711159843079812,0.07507967168690893,-0.057801176797580914,-0.10639514521707193,0.07624346098851152,-0.057846944891878686,-0.2301462461165835,-0.39484432639220735,-0.29097405324541986,-0.27643211474365326,-0.4742151042215799,-0.36265945599946575,-0.5981244429865578,-0.4757557344549885,-0.4514067156965044,-0.08752647546566292,-0.35434674967038415,-0.5459958087733183,-0.11752804266849802,-0.10086308245208343,-0.06278817913041228,-0.08302676118276925,-0.004322337623316482,-0.3139840581908968,-0.07876610110699406,-0.03582056621582018,-0.14336778094272967,1
10.85,2.9,1.7,2.4,14.3,13.95,2.6,5.725,654.0,213.0,89.0,131.0,936.0,680.0,147.0,378.0,18.0,16.0,11.0,14.0,13.0,14.0,16.0,19.0,-0.43685507345699165,-0.09572829392250938,-0.3801599698524582,-0.43376906930267894,-0.4553340429259573,-0.08620950421448147,-0.2384956320654546,-0.10523380312533297,0.06846860287754945,-0.06984338510242574,-0.23682858436962864,-0.21819089494224755,0.12489535320190816,-0.5390555140786217,0.17693952760459894,-0.4227911012870625,-0.34564643370756193,-0.15634625019341464,-0.1553192528074066,-0.1687449851895751,-0.05070735174890814,-0.32082511386727425,-0.17768060127981766,-0.4239332514327301,-0.41848664082939796,-0.43114913472634947,-0.26608283475607086,-0.11792547440149677,-0.3799505958484196,-0.0853707914969171,0.2056257360093578,-0.18295783114898664,1
13.1,4.65,1.825,2.675,17.225,18.25,2.175,5.475,896.0,322.0,106.0,152.0,1115.0,928.0,134.0,390.0,19.0,21.0,14.0,16.0,16.0,12.0,10.0,18.0,-0.5050445887913303,-0.49419056391732247,-0.3202788125429845,-0.3961856875193688,-0.5139084131590016,-0.3344243012589875,-0.055629318199996385,-0.21005392508370982,-0.24712002266706695,-0.3168845213570621,-0.2569409874734344,-0.39402980758778233,-0.09588053622265363,-0.61927083653318,-0.04048296095636388,-0.4010160581370736,-0.46690525207280115,-0.3072099159528312,-0.3134589125347905,-0.2882348464946692,-0.08539942731443739,-0.5260783387392342,-0.18387538619765506,-0.36864574951907736,-0.272713993776255,-0.2537861032447128,0.1310745809787886,0.16483488723117914,-0.4407131272594066,0.023851206213749858,0.019597151236711928,-0.3528446687683258,1
11.95,3.65,2.5,2.575,17.95,17.425,2.45,7.6,813.0,223.0,144.0,155.0,990.0,1015.0,138.0,499.0,19.0,13.0,12.0,12.0,15.0,13.0,12.0,18.0,-0.46371866749976937,-0.2686956692666499,-0.08600615227190385,-0.16562066602859,-0.5904867162547404,-0.2500430701126768,-0.033661712059446056,0.04936398143334918,-0.3199657016025653,-0.4408814004768662,-0.30636905108911716,-0.40163252868419214,-0.23162664208243364,-0.4511785421131883,-0.04538815026073895,-0.34554460377485025,-0.08763349993324449,-0.2295876865236084,-0.27701970908710116,-0.1304152654247876,-0.41137777843268375,-0.5390196493818403,-0.5359149594830863,-0.45855732389081777,-0.3939450376311238,-0.30215075506832767,-0.05704744643061834,-0.06252593096105102,-0.49187292795757886,-0.18114459878684208,-0.05648720942809134,-0.13969243521154803,1
13.05,4.175,2.275,3.2,19.875,23.225,2.3,5.95,732.0,227.0,105.0,181.0,1164.0,1151.0,100.0,355.0,13.0,12.0,10.0,17.0,14.0,11.0,12.0,16.0,-0.06697608484618642,-0.1982929746438965,-0.1175825647436306,-0.21467400521367616,-0.29021672197473386,-0.5509246189620611,-0.3668411048819968,-0.48665366161897183,-0.058741591773416424,-0.3917991969703839,-0.47131487220237284,-0.17590581824609924,-0.24105475637585175,-0.36026518240111066,-0.42276434605767593,-0.3337043083334572,-0.08394953185604367,-0.08537281866551949,-0.23077158120867916,-0.24281978185442152,-0.3154438747682946,-0.4169755024093558,-0.5754809772113261,-0.4481442171627424,0.029282130053783575,-0.4356191670144504,-0.18675224211483976,-0.08311451790351199,-0.12523711605022142,-0.1053161459162936,-0.21955832327363092,-0.17998658175999951,1
12.35,4.3,2.15,2.75,21.075,14.975,1.775,5.2,738.0,245.0,109.0,164.0,1352.0,926.0,80.0,295.0,13.0,9.0,15.0,14.0,17.0,18.0,11.0,13.0,-0.2590803022611526,-0.45591196760947755,-0.16796770809045708,-0.4148802387502982,-0.22119425225742362,-0.44304704211801743,-0.157896042931674,-0.29061603622199944,-0.10154892491785475,-0.23703156159832797,-0.06520896563049769,-0.17905166424123772,-0.21838320828563207,-0.21070372044672558,-0.08077449370548882,-0.21951826980144182,-0.4578082048306859,-0.21593330781109807,0.0198261189340846,-0.07636462148172127,-0.22810071241346644,-0.24232033488808372,-0.19826111597549856,-0.27112637982336546,0.13486199231933227,-0.17639270690145006,0.20241512940173714,-0.009273022221471404,-0.257226434755948,-0.26858514543035755,-0.24410930371638132,-0.2475235621806415,1
11.525,3.65,2.2,3.125,20.425,17.225,2.375,5.55,737.0,197.0,125.0,188.0,1428.0,982.0,152.0,340.0,14.0,9.0,15.0,15.0,21.0,13.0,21.0,14.0,-0.4686423550302481,-0.399896482357896,-0.3368528460759528,-0.27420054310114694,-0.14213773341616806,-0.5389841465179961,-0.07230264540229972,-0.49076842010501115,-0.20763983711234416,-0.5079077130479508,-0.23131053828144174,-0.3299643338195315,-0.21927314430599273,-0.40131451440337973,-0.09828389799219059,-0.20774887627052627,-0.6236758377164958,-0.41630403390051507,-0.08888238331635157,-0.1767882466053104,-0.26686085872989396,-0.5645827839975617,-0.2603240950954495,-0.567583636680782,-0.5335955468753886,-0.3126806030837295,-0.30938710372741596,-0.37813337659274465,-0.35848674595626473,-0.1451321594471097,-0.14391415367700797,-0.36250593961571453,1
13.725,4.15,2.375,3.075,22.4,16.95,2.25,7.775,853.0,241.0,121.0,183.0,1539.0,917.0,136.0,506.0,12.0,13.0,14.0,12.0,18.0,12.0,13.0,14.0,-0.3921149708205693,-0.47260116626322857,-0.37746821114236023,-0.45070379110620745,-0.35893510362621867,-0.4050044959825967,-0.2185358090224422,-0.4455919266947403,0.07385345534167836,-0.37594780437208675,-0.1299358102963293,-0.2324154235181363,-0.5289557331464968,-0.6178911688024873,-0.36766417966037973,-0.27001357756933947,-0.6512508551000289,-0.449236891669918,-0.1643757294873421,-0.19707524061149784,-0.002431621982653632,-0.5650067028465185,-0.09828540365703516,-0.3708064249391175,-0.29956124664576356,-0.18113653246356703,-0.0654254734716676,-0.2873226604121201,-0.6067445964500436,-0.2938909285422569,-0.33905429946313576,-0.29461988325548744,1
12.1,3.325,2.9,3.25,28.1,22.9,2.4,5.075,722.0,176.0,163.0,188.0,1687.0,1248.0,135.0,314.0,16.0,13.0,10.0,16.0,16.0,12.0,14.0,10.0,-0.46364875142865564,-0.17851361682432262,-0.10715007860140038,-0.062342005985834024,-0.3076313933958671,-0.36666161276280507,-0.13509960800849277,-0.3237213841130622,-0.5585382039172526,-0.6087152511724343,-0.5536920534322796,-0.5746411711415107,-0.5559611796051811,-0.5894594053046336,-0.5079338126548556,-0.4127609935522443,-0.640863816870815,-0.7068417597293111,-0.5529752512671856,-0.33634802348169496,-0.6016096131566454,-0.7045186814723527,-0.6030859267671165,-0.5139147994273737,-0.22726052887013065,-0.11341294093745372,-0.17434327573961014,-0.09083459720918623,-0.5672153690931219,-0.3516249812432944,-0.4781378474697993,-0.26823792811372865,1
9.225,2.7,2.05,2.625,22.925,20.675,2.3,5.675,613.0,176.0,130.0,166.0,1384.0,1283.0,118.0,398.0,18.0,15.0,15.0,16.0,20.0,20.0,11.0,18.0,-0.4714205758650446,-0.5304528317016578,-0.21810496855402664,-0.21245223918783118,-0.7151460781243555,-0.2537496632053825,-0.443231731894144,-0.471025215213869,-0.41725553287376027,0.005789998281053947,-0.2359190149077473,-0.4051376254215728,-0.4801959768166829,-0.09745753793450662,0.026613447157911547,-0.1060762861770464,-0.4301442262516553,-0.42993791050068325,-0.29792838274199895,-0.30237232725755464,-0.42263775814317883,-0.3098160091010982,-0.2964475933954549,-0.36546803197585803,-0.025523298512751435,-0.002976001218389717,-0.17405839527137543,-0.17236116075316046,-0.5572565713197569,-0.44823565859202796,-0.4399561555617055,-0.1416739064019289,1
10.8,3.625,1.775,1.65,18.85,18.975,2.3,4.8,733.0,219.0,95.0,95.0,1165.0,1075.0,134.0,282.0,21.0,16.0,10.0,11.0,17.0,13.0,15.0,15.0,-0.4516465650692355,-0.26057529312936023,-0.2895739252729137,-0.47813543071111253,-0.5677906850955834,-0.5716464363570353,-0.4336152145512454,-0.3195715832311499,0.13314538541157456,-0.43724095471348995,0.052230385243659715,-0.422423784750249,-0.3494278411170919,-0.29668752256366854,-0.15882013659677865,-0.30669557386633506,-0.5279809354918436,-0.37526252451528325,-0.4701941632518344,-0.3804658179206857,-0.3125929876326134,-0.4327006525136864,-0.27680632395976684,-0.37687454063749504,-0.39530419764795904,-0.1717721728970021,-0.22930079955546417,0.07606789621614153,-0.32752789286462286,-0.24103468601844,-0.09365442122448103,-0.1511489911530242,1
11.95,3.7,2.15,2.225,17.95,18.1,2.45,6.975,726.0,236.0,106.0,115.0,1262.0,1028.0,147.0,450.0,13.0,17.0,10.0,14.0,15.0,17.0,15.0,15.0,-0.2924542548020844,-0.4378325606802751,-0.1664295476947419,-0.38146534520259323,-0.4685832437992729,-0.2851962432031516,-0.3402462547789364,-0.3167716784177946,0.05766280366578304,-0.4383752949043565,-0.09283400756268137,-0.3892966097851291,-0.09872582163972113,-0.2654883767382182,-0.02773564397364883,-0.19097666179864717,-0.7978579036422115,-0.7022346314339853,-0.37147932243359033,-0.10201227946160052,-0.20069462863139612,-0.4598169685951762,-0.13717012251173263,-0.1479627150226753,-0.338079842547526,-0.2158963121834901,-0.02965277020337001,-0.06548588469305242,-0.41889589842577635,-0.3901818246607086,-0.17111895642265365,-0.48811303576968873,1
15.925,3.6,2.425,3.0,22.975,22.925,2.35,6.875,1126.0,243.0,126.0,156.0,1499.0,1382.0,125.0,435.0,20.0,18.0,8.0,15.0,18.0,14.0,12.0,18.0,-0.6338771959226462,-0.5005293456532675,-0.32959673282217905,-0.3867746914368122,-0.3062785351754825,-0.1378553121750114,-0.07362934547614765,-0.29609999004655274,0.018902429088022032,-0.40443897818008595,-0.290749304034856,-0.0939981391906492,-0.2103449822974896,-0.46566205510746056,-0.23843630060475818,-0.2646028929889319,-0.5403888586448506,-0.5336421638798915,-0.316217524747634,-0.22060325183458607,-0.38541929475033293,-0.4632761689727716,-0.44040649392849074,-0.3172041378173706,0.002142312239631391,-0.23295051735641037,0.15575543281205118,-0.22261943733593467,-0.4439410775664326,-0.05172750208112215,-0.23569537344738611,-0.35668703973192284,1
12.4,3.725,2.45,2.95,24.825,21.325,2.25,7.05,761.0,185.0,147.0,177.0,1548.0,1269.0,128.0,378.0,12.0,13.0,18.0,16.0,17.0,17.0,16.0,14.0,-0.3388099807900762,-0.38049960757032464,-0.278028717210243,-0.43085959411745905,-0.0025612539171740493,-0.4713208475199555,0.004948481417976396,-0.43916799983846355,-0.3266005094705833,-0.3477750464555546,-0.3858686750504491,-0.2141310852394116,-0.2979690553756197,-0.13563969043089077,-0.3086418726494459,-0.14087814796858256,-0.35205160207400127,-0.4582277244557649,-0.1618673670410564,-0.20447114983422607,-0.2840791381296467,-0.2432168176103854,-0.15492542493266662,-0.2515432780950381,-0.1168715850928012,0.11812711324737087,-0.053289092149608606,-0.26596379543411597,-0.2700637457546018,-0.2678433965275051,-0.31180181212705577,-0.24677365170333423,1
12.025,3.6,2.525,2.75,19.575,19.325,1.75,5.45,778.0,203.0,136.0,137.0,1136.0,970.0,94.0,374.0,23.0,14.0,10.0,11.0,19.0,12.0,12.0,19.0,-0.25514042459284286,-0.2445906471024874,-0.2071140059412055,-0.35616664526997105,-0.4026317268885031,-0.36152155910381134,-0.34043123729133845,-0.19593646923513577,-0.08361874356928199,-0.20813496087786665,-0.3361786351605754,-0.149875764287791,-0.23600159007162688,-0.23965082848405178,-0.4189852513588122,-0.4435765481831912,-0.3349466678241123,-0.36247215849121345,-0.4462814776085721,-0.18854573511305184,-0.020405866552505786,-0.3677668405880608,-0.46021192210475453,-0.08629539892000364,-0.05037685945556339,0.08944190550725029,-0.10979266594759293,-0.2744126482057931,-0.6115634748968266,-0.3456827211824937,-0.23391523544909246,-0.24879979943177843,1
10.5,3.075,2.825,2.25,20.2,17.2,2.25,5.0,622.0,196.0,155.0,122.0,1319.0,1040.0,130.0,345.0,14.0,14.0,12.0,12.0,18.0,16.0,16.0,14.0,-0.09437498221382969,-0.22801604457142047,-0.1902968031654088,-0.25440666138903306,-0.4441479519347623,-0.06906881416769349,-0.17194460764207659,-0.352585636617672,-0.27970292383986084,-0.18981836839799487,-0.1823717093679563,-0.4634897891870402,-0.11609743080519343,-0.15718409725273846,-0.18952717147752887,-0.28188137617987036,-0.3866292924113715,-0.4425447345725064,-0.18160687756016938,-0.4323643560542902,-0.13446820943463003,-0.452096040738661,-0.17647410863142013,-0.39186164110085203,-0.3553991483667921,-0.4102006623678112,0.004649065713762444,0.03785676229798306,-0.6093983527610254,-0.4426945775546622,-0.2801426685998813,-0.34131291304752537,1
12.95,3.85,2.6,3.325,17.0,13.375,1.85,5.725,694.0,253.0,145.0,203.0,1101.0,798.0,116.0,360.0,15.0,12.0,14.0,14.0,12.0,14.0,15.0,14.0,-0.060968198152768896,-0.2713478621901787,-0.20405458310659072,-0.0977305634593815,-0.48184244680001254,-0.257474728863103,-0.3262481765931815,-0.3902331895854486,-0.5383911046864981,-0.30509403079962083,-0.2714924448741028,-0.4037190361796096,-0.806681123643768,-0.5860130901376902,-0.7427744031349943,-0.609000474752143,-0.6069502451354911,-0.4668030514301133,-0.41789631994067333,-0.2695189304575882,-0.49190468799154197,-0.3852871852641957,-0.5066786831942219,-0.41717411126279547,-0.2799927189732301,-0.12009971790056444,-0.25274230423130956,-0.17647627128344437,-0.210545430392813,-0.1477938193803797,-0.09350875564314612,-0.30136685234052657,1
10.875,2.925,1.675,2.625,13.275,14.975,2.25,4.575,707.0,189.0,97.0,157.0,908.0,911.0,128.0,290.0,17.0,12.0,14.0,19.0,18.0,19.0,13.0,17.0,-0.3904988452438877,-0.3811993806220363,-0.2609293442633344,-0.17981928757635474,-0.4686034276040258,-0.3937806474405979,-0.49738681555548697,-0.1978591922857987,-0.28116761886356206,-0.30836130707950893,-0.4332728023489338,-0.013541304977771375,-0.18923129418443205,-0.22552710861443503,-0.2114911558011688,-0.11227375552527624,-0.47870192282220675,-0.14972647351031387,-0.2578006903538168,-0.3199310598057753,-0.40440223001110537,-0.40021347705285254,-0.3062063591513355,-0.4406130320339736,0.02562467707594554,-0.1865270458438772,0.09076000995857963,0.2612508783092149,-0.24973833949446997,-0.010915412309688574,0.3006393332923795,-0.08959560484312071,1
9.225,2.35,2.05,2.9,19.325,19.7,2.425,4.625,577.0,138.0,133.0,194.0,1190.0,1087.0,153.0,311.0,19.0,13.0,17.0,16.0,20.0,14.0,15.0,16.0,-0.5184996213744278,-0.3441486048179312,-0.3884025785415577,-0.24606313617577558,-0.23251051165432202,-0.3264995553058778,-0.31787963527553204,-0.04022811728522794,-0.3930628356559537,-0.4198845152362764,-0.27299437811760957,-0.28216996829277874,-0.35468948377384163,-0.20506654456707057,-0.09531204682941763,-0.35384805805526615,-0.44334724301277423,-0.48493555298754654,-0.34878385483858504,-0.2970132317655337,-0.2270569086274991,-0.533349951621533,-0.20102161183009926,-0.3394629171474531,-0.397449626909826,-0.19902892294399513,-0.33695665201312713,-0.27030841804857586,-0.34585237513232747,-0.11448655488678669,-0.042427820216178025,-0.07185718418707858,1
8.5,3.2,2.2,2.7,19.95,15.8,2.25,5.35,462.0,189.0,113.0,153.0,1270.0,824.0,158.0,316.0,15.0,13.0,12.0,12.0,17.0,12.0,15.0,13.0,-0.17870070085189,-0.28805187114933506,-0.2168729668914257,-0.1870779953144255,-0.330321164290899,-0.15711225037009402,-0.2561015698192593,-0.37749180988651226,-0.10876115883655459,-0.435854918265728,-0.3340830374430705,-0.2770484856878109,-0.3569891084343246,-0.4766481665698575,-0.2794067706815029,-0.333397302190956,-0.3448300408533345,-0.21561262045904847,-0.3696056413997974,-0.17235286581096265,0.1110662374193071,-0.593413902410145,-0.15854498437477277,-0.20225508474069614,-0.560699407545009,-0.2103325981008825,0.12969047289981653,-0.22499473836623546,-0.2443059135896014,-0.3637328189386952,-0.09488140762521399,-0.42356785366165917,1
14.45,3.3,2.225,3.125,21.275,14.925,1.625,4.375,953.0,194.0,114.0,179.0,1383.0,840.0,95.0,231.0,19.0,13.0,12.0,18.0,17.0,14.0,13.0,10.0,-0.36927910741244185,-0.04619337279720803,-0.23579895329642622,-0.39600661391706626,-0.3406286974938266,-0.113220414506102,-0.2669652795849003,-0.5103901853505952,-0.25736103592145626,-0.40346817038715793,-0.37364321640334425,-0.20770778719792954,-0.38179559579861777,-0.36250302694641007,-0.3496741747423,-0.21558768640204107,-0.4847678281871198,-0.31754759249532105,-0.33092073545035394,-0.03223937871254503,-0.16724212862204815,-0.40731207273623377,-0.2667521566646308,-0.1606271776374473,-0.0593170841292388,0.32724761922065027,-0.2332245551265419,-0.10033761422528234,0.06309025405151743,-0.09093160921279608,-0.1021552216749563,-0.3973866329414226,1
12.4,3.075,2.75,3.325,24.85,22.475,2.025,5.55,786.0,210.0,169.0,213.0,1713.0,1393.0,130.0,350.0,15.0,18.0,16.0,22.0,20.0,17.0,17.0,17.0,-0.4359220340340329,-0.17421502878534,-0.1341799349893706,-0.22103582678332775,-0.6386679561884174,-0.23596797702114902,-0.17765191557834786,-0.12059885612894536,-0.6039860661656483,-0.5663884634072665,-0.5451839447049686,-0.23860590188871889,-0.8223012411869484,-0.7474771208311078,-0.7659107291036974,-0.6114262742082862,-0.6470591232174588,-0.5080336686810333,-0.33599289435191637,-0.12712642622198908,-0.6183415695295478,-0.5857120311255748,-0.6083442931730755,-0.40181219234882115,-0.2024570828981303,0.002886400526282639,-0.032207042387940414,0.10460114028810685,-0.21891256810267853,-0.03224747613504907,-0.19914287024512883,-0.04971001473895542,1
10.95,2.85,2.575,3.125,18.875,20.325,2.175,6.8,633.0,150.0,153.0,197.0,1097.0,1076.0,135.0,394.0,13.0,14.0,14.0,18.0,13.0,13.0,10.0,12.0,-0.2733949228587495,-0.07218090662868006,0.12347662001137169,-0.041174215455559576,0.09601830237197072,-0.06861512211129141,0.20073480073669875,-0.19923997632408466,-0.2605663136635512,-0.2734284449072853,-0.2911334921280257,-0.44501393152812085,-0.3710206435777502,-0.3880048410168072,-0.15593174960213718,-0.2682865593878536,-0.37352423342837987,-0.38085649053678244,-0.3996191228370498,-0.5330548189247875,-0.3373705105331788,-0.5354422103254646,-0.491228243121105,-0.57104505896295,-0.16205990279742627,-0.33016748937327245,-0.16794240582171252,0.016621159413655006,-0.2282042763801809,-0.3875363054640468,-0.2770509632598217,-0.2301565579727071,1
10.875,2.975,2.025,2.55,18.975,19.7,2.425,5.325,717.0,173.0,115.0,160.0,1103.0,1168.0,155.0,323.0,19.0,12.0,12.0,18.0,22.0,15.0,16.0,17.0,-0.5614240707571239,-0.4474890053026995,-0.2687016377358164,-0.41577959148356514,-0.42076981888358506,-0.4756368661918198,-0.2582488437368837,-0.28198318489475943,-0.35650960262146647,-0.6127774552960102,-0.48036141537183125,-0.35366058234436776,-0.40075924293278997,-0.26245737607147035,-0.0974841894592129,-0.2038627822239471,-0.28634206002841556,-0.29175309732045135,-0.4579463201028858,-0.13400948803138274,-0.3792327905808052,-0.4908270086114417,-0.42290279224147864,-0.5148758726323671,-0.3352986092526987,-0.5294623317054341,-0.3106494844567507,-0.2589124083719328,-0.4324726599088055,-0.45710558893620584,-0.2258748778865893,-0.3718834343442894,1
15.475,3.225,2.1,2.475,16.475,15.35,1.775,3.925,901.0,171.0,115.0,146.0,1000.0,949.0,93.0,262.0,14.0,12.0,12.0,16.0,18.0,16.0,10.0,21.0,-0.20370956317594557,-0.40884909440703676,-0.0670898523414676,-0.34809631341592684,-0.08902309754208301,-0.11021151302445809,-0.10023998387289076,-0.045961256735733654,-0.19652714253763848,-0.20545044172576152,-0.3873610664270016,-0.19929976422122456,-0.28286564966597216,-0.5253549116225027,-0.24045955195339477,-0.36026026225913,-0.3769950596463631,-0.29885847769501656,-0.46771456495197494,-0.2680318856788633,-0.3472989221500119,-0.22992324116564353,-0.31769045397917595,-0.39981390620287127,-0.11458492350378315,-0.24035055689181414,-0.2894724091523246,0.006011070538518206,-0.37816065567949014,-0.21910519495449363,0.13451674427736024,0.04167535741217256,1
21.15,4.425,2.275,2.425,16.175,16.4,1.75,6.35,1389.0,283.0,143.0,119.0,1071.0,1026.0,94.0,425.0,18.0,17.0,22.0,13.0,19.0,15.0,12.0,16.0,-0.6567434514559205,-0.47588018695496703,-0.5404574695306396,-0.37507789842628536,-0.48653792543316565,-0.30178001411271793,-0.4428371539546405,-0.3415594574750846,-0.33593254714686377,-0.2486478752086789,-0.4864114652386116,-0.3008092341691175,-0.048200440628423165,-0.38134016703810414,-0.22268834909108726,-0.3464167575153108,-0.4232744838097303,-0.223444794724102,-0.20126420313650287,-0.21499651989256732,-0.44100047024032685,-0.2506020951393531,-0.32902119078747577,-0.22098235299294908,-0.022800844293688748,-0.20798033062799678,-0.2114795617336086,-0.003966161858295951,-0.5479444816104919,-0.32839600905827304,-0.4830168006542463,-0.1519888001747859,1
24.45,5.125,3.225,4.025,20.025,19.825,2.45,6.4,1531.0,318.0,176.0,223.0,1289.0,1161.0,149.0,379.0,16.0,14.0,11.0,14.0,17.0,13.0,15.0,11.0,-0.7780505022056186,-0.6866746542076022,-0.6245703166150567,-0.5231459366781255,-0.5113653416660169,-0.47763100050651164,-0.5047379315429531,-0.46892264321601973,-0.23507500657504224,-0.09015133134442689,-0.1973152867533337,-0.18488226115612624,-0.48954543879633183,-0.3496992244069442,-0.17781130287574737,-0.12793728198040688,-0.5379765967158531,-0.20904788219020445,-0.2805678268994696,-0.1660110770058695,-0.2506928726721659,-0.1660398185627396,-0.40529318087338084,-0.12479068891149007,-0.419846765106377,-0.28884142268471075,-0.012552371419970402,-0.14913853548306008,-0.498702501424277,-0.7044920417263401,-0.6047641428363714,-0.37695555085509047,1
13.075,4.425,4.45,5.3,27.4,28.25,2.725,5.825,684.0,234.0,277.0,354.0,1620.0,1559.0,153.0,301.0,15.0,15.0,17.0,18.0,15.0,13.0,14.0,9.0,-0.1270515206475453,-0.32324724597305493,-0.2690274631408351,-0.32440348203448893,-0.22353536156617262,-0.31459160331030955,-0.38936056740497277,-0.18958929221773527,-0.4661156051497732,-0.5040160395467398,-0.3568597188977248,-0.4311005422168106,-0.8106252007384236,-0.6834900381692098,-0.5204760095819334,-0.5175665502942293,-0.3198022640658868,-0.4940399242675726,-0.2847826325771933,-0.4453813434945602,-0.19997986166273252,-0.4014553104858679,-0.337340002289693,-0.3300214934389057,-0.27036141062481994,-0.4404911328019452,-0.22645646099981623,-0.09907170849259549,0.10987009408245908,-0.5702695151856394,-0.05722702793379087,-0.38599895291420483,1
19.3,5.225,3.225,3.9,28.125,25.825,3.15,8.25,1057.0,290.0,212.0,254.0,1732.0,1714.0,198.0,489.0,14.0,14.0,18.0,11.0,19.0,17.0,17.0,16.0,-0.3902482458635213,-0.30248268870032424,-0.5272148600518963,-0.40797138095399355,-0.2915952603050833,-0.20955398193068106,-0.42207988593361945,-0.2261268857260332,-0.37735632876494196,-0.09358188904363836,-0.23027387313640849,-0.18067944921885445,-0.41868486054517146,-0.08012892941095216,-0.22999072123014014,-0.3336010261541735,-0.49494028510690363,-0.14013267503157154,-0.2280551816426588,-0.2727532868778086,-0.4799928990593267,-0.21967655746068865,-0.30452734367793016,-0.29167320615953723,-0.4865507954402611,-0.370141888207702,-0.24180637711264266,-0.2669878867404158,-0.5736179372037149,-0.5560420321229057,-0.5343761863597014,-0.6038939178149938,1
13.35,3.725,2.7,4.275,24.45,20.875,3.475,7.925,831.0,244.0,159.0,239.0,1478.0,1313.0,199.0,500.0,19.0,14.0,14.0,12.0,19.0,19.0,12.0,18.0,-0.5153683530643078,-0.16571854291390486,0.06791697238045612,0.09433365906612243,-0.40370963557118916,-0.3110587006703792,-0.30116941666602354,-0.40622714212325967,-0.4061150483228632,-0.1967498241039939,-0.3442234660754731,-0.5053749892219169,-0.2795365821169667,-0.20603372711955711,-0.276507368173605,-0.2866052555198336,-0.3516942827579308,0.041742379220914644,-0.07532419715760402,-0.21535892003979273,-0.38518974096242814,-0.13527427952040966,-0.11805360422500526,-0.25112005942755716,-0.17507289368076778,-0.05717784257034298,0.1138931379057819,-0.23711733040694788,-0.33513092931360666,-0.09501887559149622,0.03645098360806556,-0.13229158234469096,1
12.325,3.75,3.3,4.775,25.325,22.575,2.925,6.4,754.0,202.0,175.0,271.0,1597.0,1263.0,183.0,385.0,15.0,14.0,12.0,16.0,16.0,12.0,15.0,17.0,-0.36040289840203005,-0.22730081906064684,-0.2428448440734702,-0.15647206538752437,-0.08963070897642131,-0.6587937747442064,-0.1680768167522815,-0.5214613302168594,-0.5027358736183308,-0.5683752902492358,-0.6515115891677071,-0.580304886165962,-0.4141290838539283,-0.49621466355989063,-0.4598863391656502,-0.42240287101552804,-0.5275658539217487,-0.4605939915308493,-0.5119915862341682,-0.4336836590271502,-0.4764221210277928,-0.5960544416772116,-0.5694745813705493,-0.5855962486895616,-0.2018127629371614,-0.4005704879196638,-0.16165380458340725,-0.31096490640092433,-0.23059031631919738,-0.22566581839722621,-0.12216719777964243,-0.11065942622075457,1
10.85,2.425,3.275,4.65,23.425,21.95,3.65,5.3,677.0,136.0,181.0,297.0,1422.0,1203.0,218.0,327.0,15.0,8.0,18.0,16.0,16.0,14.0,12.0,16.0,-0.07599620074535374,-0.3922829665266272,-0.20657139914962352,-0.2252989498137365,0.008518566765555414,-0.2091212374619802,-0.12376409824768683,-0.3130124173022893,-0.26941661566250624,-0.3399541620797336,-0.41717424567739797,-0.23726797578740777,-0.5247152019185094,-0.2289109869519934,-0.13678066574925324,-0.08605999068135271,-0.2721254821950353,-0.23569564063445983,-0.08945588617765488,-0.3668983923282275,-0.42682268175250837,-0.4554799855240477,-0.4898369848941433,-0.4642734079999151,-0.1251712389666503,-0.4813392615758109,-0.11970346172247062,-0.5377533051701315,-0.4188987359717651,-0.16374076308727725,-0.2305497490662648,-0.2074440296606856,1
13.375,3.325,2.5,2.65,25.05,17.825,3.675,6.825,761.0,192.0,132.0,166.0,1519.0,923.0,235.0,373.0,14.0,16.0,14.0,14.0,14.0,12.0,14.0,14.0,-0.21175105434078278,-0.3450228912452203,-0.347952281971545,-0.09280448666186245,-0.22204336587047893,-0.18551190149130153,-0.17615622018273056,-0.5990105002088378,-0.1896579253704176,-0.4293931614434646,-0.08326123748967001,-0.3049206210571714,-0.3543437874976577,-0.24090810272231672,0.05725844415878596,-0.22291314180124072,-0.26761266272790213,-0.3817030646376685,-0.00922612172702368,-0.40043961386759275,-0.12008174549807818,-0.5042408182131481,-0.2155250912269849,-0.36801665285481505,-0.34238249071273114,-0.07095169404099055,-0.10131759741410058,-0.3603834607357264,-0.24576078103170415,-0.3001369173348947,-0.19866068318974953,-0.18637373064647128,1
10.625,3.725,2.6,3.175,20.675,19.05,2.675,6.35,657.0,234.0,164.0,214.0,1332.0,1126.0,174.0,350.0,17.0,13.0,15.0,15.0,19.0,15.0,16.0,14.0,-0.44985423472136443,-0.3409941209700341,-0.42435736020522535,-0.09317488539236427,-0.36448247765803343,-0.15562416244964347,-0.3871160627920184,-0.4094398585599791,-0.31316779796767785,-0.021200909145588885,-0.3490116104240186,-0.2607780588599315,-0.5419719430385751,-0.2858847904903902,-0.39859554946601683,-0.5030786923340996,-0.4124373505231993,-0.06603801354146265,0.1828072404003821,-0.018660877957291985,-0.29096397846470895,-0.1624893576846505,-0.30982198576547837,-0.35228717797848325,-0.6046073929308222,-0.42523518013777767,-0.4762970157205289,-0.3252150391751883,-0.33710349644804294,-0.35528278442157885,-0.38667020309365996,-0.20888015387876693,1
10.15,3.4,2.675,3.625,24.8,17.925,2.875,6.725,693.0,227.0,180.0,252.0,1525.0,1163.0,183.0,431.0,23.0,13.0,15.0,17.0,15.0,17.0,16.0,14.0,-0.49245165250495415,-0.023992758513208926,-0.05745652112291806,-0.25017903940042224,-0.433517330069166,-0.12461326921599619,-0.11709953283784333,-0.304574899830386,-0.42055108397205265,-0.14395577941971868,-0.17419144403093487,-0.2378808735350931,-0.5785830137069874,-0.4371586908232644,-0.29335835926249965,-0.25207635468875206,-0.545852773333095,-0.5137727078778683,-0.016366159152116522,-0.16925991204077354,-0.5367732789980009,-0.6157582406681303,-0.22267612875548115,-0.2875153647967242,-0.3651682902011191,-0.22202726862316435,-0.346267830839444,-0.24227054174603754,-0.43376322506419024,-0.26114567628446317,-0.35286833041075805,-0.44047038068052174,1
11.6,4.075,2.9,4.35,19.875,17.525,3.225,6.35,801.0,272.0,177.0,269.0,1280.0,1101.0,184.0,391.0,17.0,19.0,15.0,13.0,18.0,20.0,13.0,14.0,-0.5371705927921426,-0.26206403384152255,-0.31496528209886576,-0.18368555726728078,-0.7279539443308525,-0.42702340256141863,-0.3726285120652772,-0.27929825582097006,-0.3991812053172692,-0.3243746146229537,-0.24258360823155425,-0.3428042722177559,-0.37915987039688626,-0.12759789009304393,-0.24707368133234828,-0.2626867150169142,-0.4667449386485462,-0.43782871926574696,-0.35165818488385153,-0.3451324330706375,-0.5077172633298407,-0.41795969987467246,-0.37921298889727173,-0.3360119059109873,-0.0490711902422943,-0.4887006335334805,0.027816649544927116,-0.3929462330505395,-0.3158418826920135,-0.265138931983051,-0.2039531671957609,-0.21491212169019389,1
13.1,2.475,2.9,4.425,21.8,15.475,3.825,7.575,806.0,149.0,183.0,288.0,1553.0,874.0,239.0,482.0,12.0,15.0,19.0,17.0,20.0,18.0,21.0,15.0,-0.3331306557501628,-0.16859727004889327,-0.4730886854489417,-0.23977884187159335,-0.2494054079208971,-0.4543596976107088,-0.07505360914445713,-0.1843088870693172,-0.3756638800530221,-0.34050062542087645,-0.12567986114857532,-0.29609419571754053,-0.5153410426089075,-0.261564927441137,-0.1961913513883032,-0.16387073779016595,-0.4337693970947675,-0.2825866843886522,0.01759251578602145,-0.31047026867446453,-0.09131128997021391,-0.39351317626038645,0.1063662138282833,-0.2892835020250766,-0.4616541604902959,0.022699774691104055,-0.044682653675576424,0.035437143119321786,-0.37939774234335677,-0.1322410395583005,-0.37992646709622113,-0.25879449333962473,1
12.3,3.9,3.55,6.05,25.85,17.825,3.6,6.6,786.0,276.0,227.0,381.0,1694.0,1043.0,218.0,420.0,17.0,20.0,16.0,18.0,20.0,16.0,20.0,17.0,-0.3777618046263941,-0.24653588507417487,-0.2875771631507671,-0.1763391957168746,-0.6409263430831303,-0.3509325273691844,-0.03142995632534425,-0.10726534976992036,-0.5577795241037444,-0.2520760964809317,-0.04396148203636983,-0.13941652918137779,-0.39368898370416405,-0.1557321154441523,-0.0221951675473443,-0.18870235852119877,-0.4638962275684375,-0.24831561643452224,-0.030589431083063633,-0.1805602332423071,-0.4174157054951524,-0.18016840285198868,-0.2175315619831462,-0.1879014402324178,-0.3896194342989966,-0.1276485850978915,0.2160531717541097,0.14227834573612783,-0.41094329943377,-0.2690066835009142,-0.26285701271974005,-0.19384210265550975,1
12.375,3.05,2.8,4.875,18.075,17.2,3.1,7.225,762.0,183.0,140.0,292.0,1284.0,957.0,190.0,501.0,18.0,10.0,11.0,17.0,21.0,17.0,15.0,22.0,-0.3318818377208074,-0.6731586996875341,-0.3221329143056939,-0.48741872726711555,-0.1299276221507133,-0.46794839762678875,0.00724322069344171,-0.2480544415201947,0.0411867299767403,-0.2429729007278029,0.06525024506797408,0.17857806070271634,-0.1562040270854949,-0.21424467997129384,0.2578573619513835,0.03842018396659959,-0.45120652395603367,-0.19795505538663133,-0.34271845397000733,-0.11527747819039631,-0.21996991367154212,-0.1822492319393571,-0.28543962413328133,-0.271664246961664,-0.31777117684462797,0.023347130844897934,0.20696877963242405,-0.16999565752889706,-0.433255934253679,-0.1292138129213978,-0.09646721571979741,-0.12259461393932118,1
12.75,2.425,3.175,5.575,18.725,17.95,2.225,6.4,778.0,139.0,165.0,347.0,1207.0,1060.0,143.0,420.0,16.0,15.0,15.0,15.0,14.0,16.0,13.0,17.0,-0.3267529403894671,-0.3142749394429594,-0.4225685107135369,-0.2433643386989495,-0.3833240717805544,-0.4158273614929097,-0.2927549800539164,0.22033755770780622,-0.2501564066054098,-0.10235349372548933,-0.2504822490097315,-0.09248576200090608,-0.2172522767638669,0.03036930450732381,-0.14845159717637701,-0.19076189248445669,-0.32836669016786757,-0.19756398306868522,-0.11778888515034766,-0.07853114162640107,-0.25285935970535595,-0.17529062565393216,-0.30136275022703446,-0.23465310927761807,-0.11850887922803986,-0.22465877193925324,0.09870043851997244,-0.28369321685405247,-0.580176424947611,-0.3775601390597685,-0.5185363779365683,-0.5194594736032911,1
11.725,1.95,2.575,4.375,20.025,14.275,2.325,6.275,734.0,138.0,153.0,268.0,1317.0,761.0,147.0,390.0,15.0,14.0,15.0,20.0,19.0,15.0,14.0,17.0,-0.2154329710989407,-0.3529256897406851,-0.22369551202859567,-0.5972183592642601,-0.4662775081014852,-0.3751084582757348,-0.47037084948594887,-0.3720652736967548,-0.2665940146633118,-0.3947100506230354,-0.1933788611753072,-0.3213090707882291,-0.15474923908391874,-0.17122080057656927,-0.07502866052638484,-0.4432126963392302,-0.506722528560724,-0.35591033493343305,-0.4452913896697631,-0.2801873453120022,-0.08687469059732661,-0.4040134443379922,-0.24237249894803584,-0.21994369697772173,-0.15942625896227763,-0.09435576569134749,-0.07229966815868495,0.29004017258534215,-0.42324928503323594,-0.3957549024355089,-0.448337231436916,-0.369781331553786,1
11.175,2.5,2.0,3.075,16.6,12.325,2.15,4.85,667.0,153.0,129.0,186.0,1084.0,870.0,130.0,279.0,16.0,16.0,12.0,15.0,18.0,20.0,12.0,16.0,-0.28333587626522894,-0.3753374808485265,-0.34343960654329225,-0.3147711559550723,-0.33253693542453755,-0.20707541440419044,-0.28975161220807955,-0.252153655563275,-0.347072448152633,-0.1581766342684505,-0.04508479588344442,0.001956475265746348,-0.49631965202240397,-0.29950842533333555,-0.16134137551898517,0.0956812533630137,-0.43121527520384206,-0.06171450279868971,-0.09436778424891926,-0.22089522752188875,-0.42454739731771174,0.0018283811403640056,-0.23806192474898946,-0.45346315514677377,-0.3137316902591905,-0.241780280188739,-0.3773753769600456,-0.06379031818020814,-0.2557058968731151,-0.40887862098287464,-0.2819025680753366,-0.12180087841189599,1
10.2,2.525,2.275,4.35,22.075,15.125,2.3,6.1,559.0,158.0,131.0,289.0,1535.0,913.0,138.0,329.0,17.0,18.0,13.0,15.0,21.0,14.0,12.0,13.0,-0.20729548901254688,-0.4609041964474617,-0.3097348957349405,0.022595223049367213,-0.4265749588485568,-0.3495780912904648,0.0468972066843079,-0.0321014565384326,-0.31109109381049377,-0.32129915662355163,-0.36803249264579657,-0.26665486911989184,-0.8026550617701398,-0.6817835082451397,-0.7269630256389288,-0.5472233012719707,-0.6320720787753817,-0.48375748299754034,-0.353131937817976,-0.39988258352956574,-0.3609579085633652,-0.24928095268294212,-0.2624238560951582,-0.3121032091158526,-0.19349127630878235,-0.29636031229652504,-0.11839377845102508,-0.11898407351909158,0.0716795772626229,-0.5261807018184202,0.08308653801820219,-0.0909387642149157,1
11.075,1.875,1.675,3.075,15.0,10.25,1.95,6.15,699.0,112.0,86.0,180.0,970.0,604.0,122.0,385.0,17.0,11.0,10.0,12.0,17.0,14.0,12.0,16.0,-0.23865102631912935,-0.3140289212100541,-0.17566537943535707,-0.35230755846097356,-0.2924822158994549,-0.4269108985423928,-0.07567094580431155,-0.25874921204481244,-0.20831538207221356,-0.08830831845024374,-0.3438424515635475,-0.26108893562875735,-0.12292642976628293,-0.17623095699571148,-0.20555203539704367,-0.31858833443347223,-0.6820508348534988,-0.48386191926531713,-0.4071909164767871,-0.3345083008045336,-0.4610103182266893,-0.506165944033077,-0.3977666135975165,-0.4366531130961218,-0.23715878390523948,-0.3982027619852535,-0.1127306179445093,-0.28316031241777423,-0.13804036733289307,-0.42594460474130513,-0.002277027707482625,-0.2737017901735383,1
11.8,2.1,1.85,3.325,15.65,10.475,1.925,4.9,698.0,103.0,102.0,211.0,969.0,538.0,101.0,293.0,14.0,8.0,11.0,19.0,18.0,11.0,14.0,16.0,-0.341867387298905,-0.3480447723110595,-0.3560196057608979,-0.42462409576730015,-0.029171653499968947,-0.29113472078645874,-0.34588333346696853,-0.23342849489362963,-0.20869379403732344,-0.2897141478932609,-0.22259045031551108,-0.26155164737245445,-0.43286458485105606,-0.14142655188435135,-0.1319961904907577,-0.10176362179774841,-0.37219966613049393,-0.22963437866815023,-0.2582168360232902,-0.36889438332096014,0.023958877076024745,-0.4257142673101929,-0.1226603748811573,-0.5584064818727121,-0.1513183204893354,-0.14586385094101137,-0.14812458361502281,-0.164124160435661,-0.09222241420199034,-0.025319080898185815,-0.020611999935324272,0.06380586131834261,1
8.125,1.875,2.325,3.8,17.825,11.875,2.2,4.75,458.0,112.0,155.0,256.0,1083.0,753.0,122.0,270.0,13.0,13.0,17.0,14.0,16.0,19.0,13.0,14.0,-0.20355758143102382,-0.2119284772230222,-0.09179698232234876,-0.23894190617318375,-0.24108273098151167,-0.2538221864059486,0.01710666233887711,-0.1851820916761636,-0.5638605307201928,-0.2109286280097565,0.10180438665854336,0.14599981595902053,-0.47587687685365937,-0.2023368983122633,-0.26086083883362005,-0.18316360184184263,-0.5348231808977731,-0.5863174094406939,-0.3441586084446717,-0.0925235946791459,-0.5168256513645717,-0.4119937102036718,-0.3741932428385405,0.00151952016286732,-0.07033597905484774,-0.12563753822060336,0.0031548175784209763,-0.20671085379609466,-0.37575363257789485,-0.19173699858192472,-0.027761828281405488,0.021593178796949667,1
12.5,2.85,2.825,4.375,16.8,12.925,2.35,7.1,727.0,170.0,170.0,292.0,999.0,902.0,155.0,464.0,15.0,15.0,14.0,17.0,14.0,19.0,19.0,19.0,-0.26182154252828455,-0.27805147585984985,-0.3819932895547081,-0.24538677611268223,-0.36094686277710203,-0.2895344877639326,-0.261100734752962,-0.40893268465480515,-0.8437156072427039,-0.3811296410589433,0.21304889046824063,0.2176891111040752,-0.8693836852404202,-0.5001714091654053,0.06372787506546064,0.12794794173641771,-0.3381158599017169,-0.03590022449684135,-0.22717367323963958,-0.37619801516631346,-0.5812575319143668,-0.18498577128125118,-0.16365311143285224,0.04305759975919462,-0.4565443493830224,0.08311855787005665,0.012133067626069543,-0.07880200119092201,-0.3656200277001369,0.0858561562719345,0.00539872451954182,-0.0685449110154723,1
10.4,2.875,2.25,2.925,20.175,10.9,1.95,6.125,629.0,152.0,126.0,196.0,1244.0,698.0,127.0,401.0,14.0,14.0,12.0,20.0,17.0,20.0,12.0,18.0,-0.46819435151468175,-0.402407840007854,-0.26320076765662104,-0.2692638128822843,-0.031233711789601406,-0.27465762647587283,-0.004672537148615791,-0.6072374516104754,-0.23357434123211387,-0.2178115099315638,0.10672734485514092,-0.16312928697346912,-0.3672966049857797,-0.4508586285181999,0.2403720823163139,-0.1358249090346923,-0.32923760653889156,-0.22362997495597017,-0.24317228076954384,-0.3656925025830841,-0.25766983228787615,-0.29313598024921367,-0.09679931052188735,-0.29454972424883996,-0.42555558038857344,-0.004150951918172125,-0.05914209533603487,-0.1937715480224208,-0.47111150555823367,-0.3058963540206335,-0.19778639423106276,-0.24378542440656004,1
9.575,2.15,2.025,3.375,13.8,9.025,1.8,5.8,583.0,110.0,120.0,206.0,835.0,530.0,112.0,385.0,16.0,15.0,14.0,16.0,14.0,12.0,15.0,14.0,-0.23147614592496496,-0.10764226494456033,-0.25135541618223756,-0.38008444821640475,-0.13266616979325682,-0.2831223876241876,-0.28839558643713503,-0.16906547012938314,-0.7018005127565852,-0.6344013995909668,-0.4508438210604693,-0.41152341806097664,-0.7988948188731105,-1.056677986730337,-0.5089431201179526,-0.5277868336760355,-0.23386960599301934,-0.5467437298873277,-0.195798328329633,-0.267309088564791,-0.4225511640372895,-0.4605939424528601,-0.412879928101262,-0.45328975189751897,-0.19605186390028653,-0.12196648659563832,-0.13475368887116196,-0.524691551883639,-0.39360148572263765,-0.2868354620609794,-0.316090343018595,-0.3667876164849335,1
10.6,2.275,2.225,2.55,14.775,10.3,2.325,6.775,709.0,123.0,126.0,164.0,946.0,545.0,149.0,467.0,16.0,11.0,14.0,14.0,17.0,13.0,16.0,19.0,-0.4070849215920733,-0.23902455389888172,-0.2775589152637052,-0.49120866641705546,-0.2706949513526013,-0.22495365002829085,-0.4478218263273602,-0.121104728120792,-0.4085291281773766,-0.2721095002142831,-0.35069604604532384,-0.15619213270527355,-0.5197964839909331,-0.3973664575977406,-0.4372061590910703,-0.2790800411089132,-0.36426648684873575,0.019937524675263944,0.21233365064413418,0.03760685604984932,-0.0887827432439434,-0.059749660946880175,-0.22623455986377614,-0.1513396365542099,-0.43257083583868927,-0.11451152572564294,-0.20617913299034274,-0.15779984269257213,-0.4847694728753168,-0.17543172292798564,-0.2603348015678915,-0.1405695445729247,1
11.725,2.5,2.675,4.95,15.6,12.625,1.85,5.7,816.0,145.0,181.0,325.0,1056.0,737.0,117.0,356.0,19.0,14.0,12.0,18.0,18.0,18.0,12.0,14.0,-0.6131508156096974,-0.26092542799982293,0.021734105070913112,-0.04499825502723335,-0.28711441783157593,-0.1837786370033235,-0.19829834767540494,-0.41892555196414993,-0.39380995615190634,-0.10843167947476816,-0.3812485092550234,-0.23482712657896707,-0.5358894012780295,-0.3220824204856113,-0.3686329733679792,-0.21240131916177032,-0.4722775509833946,-0.3881832973143141,-0.23934514029749188,-0.23437477489950567,-0.36244181735887454,-0.19536957741427224,-0.20441329838665467,-0.15022476424833153,-0.3634130829316311,-0.25580932654485,0.0016511761361228618,-0.13367288981680356,-0.3442005808727235,-0.0478366839272259,-0.21167285751588966,-0.2187653710112775,1
10.725,2.25,2.6,5.2,15.925,10.575,1.75,3.7,615.0,126.0,172.0,368.0,1003.0,540.0,89.0,216.0,19.0,8.0,14.0,21.0,15.0,14.0,13.0,10.0,-0.16125983668723823,-0.10298199521871976,-0.2530933297348377,-0.2518381533509087,-0.33602002395295827,-0.23100647738507213,-0.392131542898757,-0.19826971888330266,-0.5197461458040994,-0.1295889384780537,-0.1566525437745165,-0.22412299685614978,-0.7651224188767575,-0.25423507905939596,-0.1295383172302011,-0.04245269355714865,-0.4549182621747812,-0.3293200987669362,-0.4029652050022826,-0.07777095695259441,-0.19808277836259805,-0.2740719920185013,-0.33784067816777835,-0.330757196004487,-0.21267400517068458,-0.13466325094975498,0.05047597747088247,0.14558530280069978,-0.2071975894813277,-0.08868406595382139,-0.21401581008717369,-0.10104222023115694,1
10.375,2.475,2.075,4.825,17.15,12.35,1.675,4.45,637.0,146.0,132.0,329.0,1108.0,857.0,103.0,259.0,18.0,16.0,14.0,15.0,18.0,22.0,13.0,12.0,-0.46603731931413817,-0.6269395547284845,-0.3995784087225022,-0.32876694493344,-0.2660377723301979,-0.33069632410651123,-0.2039249758341717,-0.4139627719852714,-0.48970522721610793,-0.4469246733199283,-0.24816789665009523,-0.13964374631216847,-0.748557753206898,-0.17290584419135321,-0.16272618461992167,-0.09556186965723687,-0.533219633456056,-0.29063244673626804,-0.2619408313914739,-0.19527692566602894,-0.7438681559831936,-0.5142457799344261,-0.18749893000744855,-0.2544378435785644,-0.3015073187589613,-0.18925656923995893,-0.24544687876515667,-0.34718981783223196,-0.12181604275127235,-0.17309795810670947,-0.02078460090697772,-0.2607201818872363,1
16.6,2.55,2.275,4.475,15.9,15.325,2.2,6.675,1031.0,166.0,145.0,275.0,883.0,996.0,152.0,378.0,15.0,13.0,18.0,15.0,11.0,14.0,16.0,15.0,-0.31565158718870573,-0.22653373381856534,-0.24397443193012228,-0.2828714356525428,-0.47278943047966376,-0.3399463841922832,-0.4813228200425975,-0.3716650843478139,-0.4915910530816046,-0.13389377683370404,-0.5271590515161523,-0.49599006823786695,-0.48988369556340705,-0.22126884965252683,-0.6047667212284831,-0.6399208121030358,-0.20065376841044674,-0.07077025167309908,-0.09149788530925844,-0.2680243125905303,-0.4257887035066734,-0.4501457464801525,-0.4383030209545545,-0.5638312221486134,-0.6880386738697674,-0.3987674474495773,-0.19995864261551682,-0.21704714366739852,-0.36293494678357047,-0.4519492111069882,-0.2580767629616923,-0.19206799185962903,1
16.35,3.525,2.525,4.0,18.175,15.15,2.575,6.2,986.0,200.0,139.0,251.0,1067.0,962.0,150.0,376.0,17.0,17.0,12.0,17.0,17.0,17.0,16.0,15.0,-0.2577212078632022,-0.16918253990797305,-0.09668765652220526,-0.3685774913253293,-0.38483843929766537,-0.2845221172936789,-0.3725689278763812,-0.37132842111257264,-0.3967977615573844,-0.3828473651205184,-0.5141081909984451,-0.17423926799885775,-0.49940563338842836,-0.24530752230151956,-0.5826535536288826,-0.30554566694006724,-0.4068324162881837,-0.25578554875478515,-0.26201872973395623,-0.15173839714393622,-0.42819407713972674,-0.32176189570343416,-0.37816310550799825,-0.24311785572184433,-0.2212267217655543,-0.2842211275068549,0.02478509634906967,-0.2980212883843222,-0.29283296390041774,-0.2963300926676893,-0.20216392719934642,-0.2348667514124567,1
13.05,3.2,2.6,4.075,15.3,13.625,2.3,8.175,845.0,189.0,127.0,246.0,964.0,749.0,152.0,518.0,22.0,14.0,10.0,13.0,17.0,13.0,12.0,20.0,-0.48548129706439286,-0.29433989485752526,-0.36021780900302136,-0.2849624496479383,-0.5397630835937003,-0.4883321879535683,-0.5602169323686504,-0.446719173131791,0.031979617361974175,-0.3303481583124279,0.14109982138303076,-0.20390020925791033,-0.25743618874764757,-0.25768916043145557,0.20776938576170845,0.15834891777338553,-0.2684062595740704,-0.2730237876941328,-0.2341591150301117,-0.01656544454823332,-0.2886429113760038,-0.30436853114741036,-0.3805034896946755,-0.32273145439074585,-0.49277540212720716,-0.2053802876319127,-0.09154156279207823,-0.016653350350584302,-0.5983027862872339,-0.3104166268280347,-0.3506436756456623,-0.18361661210343844,1
19.975,3.45,2.6,4.525,23.825,16.775,2.525,8.2,1213.0,204.0,128.0,235.0,1545.0,826.0,128.0,415.0,17.0,16.0,12.0,15.0,16.0,12.0,12.0,16.0,-0.4390785094113366,-0.19536223451000811,-0.4277782552378519,-0.3795584282403659,-0.44335477075655394,-0.37981168555602646,-0.36491269737129395,-0.2336597533160782,-0.01755535195384072,-0.2811520342830213,-0.05176354834932771,-0.42494827359969983,-0.03164195281919881,-0.28376662693513366,-0.03901021041877518,-0.09988849579515127,-0.4432151304423945,-0.338900199380125,-0.5791481636801133,-0.09795543416684885,-0.25641194576089094,-0.46488688792269023,-0.5213736015331994,-0.35346248168783867,-0.12491623091044739,-0.057590144420994006,-0.4137731530164508,-0.40586307891418255,-0.2032420601929242,-0.238917612912689,-0.3780415757699014,-0.4420903469452662,1
20.525,3.9,2.325,5.0,16.775,11.925,2.7,8.225,1255.0,211.0,151.0,284.0,1105.0,715.0,114.0,440.0,16.0,11.0,14.0,13.0,16.0,14.0,11.0,19.0,-0.3225538091643718,-0.18082628655624444,-0.21793475617669436,-0.2748329433137589,-0.14893562909908872,-0.45432103895806053,-0.17666350094930247,-0.45880467465350055,-0.37525286557488147,-0.23375814151226768,-0.32989210828307525,-0.3446103088358302,-0.20636266772863682,-0.25460232391207194,-0.29210030386876723,-0.20302650806557904,-0.42274798390061324,-0.309763596855603,-0.34762641372385306,-0.1254185055531784,-0.3629268931499096,-0.27612132826356045,-0.4743335944304002,-0.154711264554901,0.10892105848340687,-0.2021019834019525,-0.2751715218153515,-0.3407682427320741,-0.01055734709054902,-0.2480490023618519,-0.27165094324981887,-0.21534758126122683,1
12.175,2.9,2.55,4.825,17.95,13.725,2.425,6.925,744.0,198.0,149.0,292.0,1126.0,785.0,148.0,413.0,19.0,18.0,13.0,17.0,17.0,15.0,17.0,13.0,-0.34651667975676714,-0.4904436060139914,-0.442511421486713,-0.3620302304233736,-0.4746089131004849,-0.17256966375020225,-0.27598925480269204,-0.47741561241033165,-0.2489281907598043,-0.23950435439363704,-0.28901810590213317,-0.35976780318190127,-0.43779842716394046,-0.33870712752930304,-0.17034920979915052,-0.2883469187479859,-0.15039419913099256,-0.35665508601198576,-0.12184821612484525,-0.5559393422734613,-0.2500134775701746,-0.13161270931488095,-0.31939818979767975,-0.3557665461268725,-0.18893692128702064,0.1455960715811901,-0.2277742561063501,-0.4377743358352413,-0.16080915102830143,-0.138971977639945,-0.21177760629455872,-0.11643671538174587,1
10.075,2.2,2.0,3.675,21.7,13.05,1.625,5.125,697.0,123.0,110.0,241.0,1421.0,730.0,102.0,285.0,23.0,12.0,12.0,13.0,16.0,14.0,10.0,12.0,-0.5014728145212134,-0.2558146298382095,-0.2464757420190111,-0.26872935630983946,-0.21535613762344785,-0.15948052037829696,-0.07195235451400421,-0.15032313865964186,-0.10711136059294767,-0.3544406098126248,-0.08234649140094646,-0.3415740526614156,-0.3128172234957427,-0.16923122333982168,-0.05961457782353123,-0.27845327210120996,-0.553945951399676,-0.7496280971102612,-0.38556636245399617,-0.40040307904161404,-0.5934441641812642,-0.7304406023833191,-0.623197704917117,-0.5832075423775546,-0.3367081679996629,0.023497023734883264,0.00034411970906464043,0.014347897893370222,-0.0973067657918206,-0.4404548446221016,-0.2558569820926751,-0.1805425362720079,1
12.675,2.95,2.25,4.575,20.225,13.75,2.275,6.825,741.0,159.0,140.0,302.0,1292.0,788.0,147.0,438.0,11.0,12.0,15.0,22.0,19.0,17.0,13.0,15.0,-0.13938609113717815,-0.2440752794887965,-0.3034059858096726,-0.254963937352803,-0.027864808109760084,-0.06289388364477713,-0.3009806331163445,-0.1941206678831532,-0.11772215551827268,-0.016720931694487406,0.01748060503250818,-0.2818168601877186,-0.36637725807953947,-0.1627249654290603,-0.03746930913681254,-0.35633931530531043,-0.3246630159488586,-0.37783575185754864,-0.03629829620129199,-0.244053660520148,-0.16379132233418872,-0.20482855429835417,-0.18442357354158265,-0.09059162480518494,-0.37414604909554655,0.005810465658605858,-0.25282638970509036,-0.3768906960305527,-0.39115016371035966,-0.3910225403132837,-0.25583208779419636,-0.1375739540266373,1
13.775,2.4,2.325,3.475,16.725,15.1,2.875,7.825,820.0,137.0,150.0,223.0,1043.0,916.0,184.0,517.0,19.0,14.0,16.0,17.0,14.0,14.0,18.0,24.0,-0.17705572083874233,0.07697273564798557,-0.3132250353524327,-0.04937956121367098,-0.08906905009414244,-0.07616828053250542,-0.22818490135618597,-0.23244672947151684,-0.4394406357739498,-0.2927463286436579,-0.2927352896097227,-0.38737797301413546,-0.5007064415110367,-0.24232447218547035,-0.24712698964638874,-0.4890428571553287,-0.23864560306564858,-0.1328072297336657,0.04407432995516098,-0.033903427236823075,-0.3076062783690341,-0.3244775278323997,-0.501585930461538,-0.038568719292918344,-0.5289040374515145,-0.10974571845807038,-0.12564948329658027,-0.17792698013035346,-0.40792868625747797,0.04872195634832116,0.03412623381328023,-0.10348702462768593,1
13.55,2.25,2.55,4.15,17.6,16.225,2.25,6.55,903.0,130.0,157.0,264.0,1084.0,1003.0,143.0,412.0,17.0,15.0,14.0,17.0,16.0,14.0,13.0,15.0,-0.5817364174625458,-0.13865996800774052,-0.4347543542093273,-0.3030086516692776,-0.4018782718233973,-0.519380736435648,-0.43605347648625725,-0.4616210575403677,-0.5158014206160141,-0.5247722796835548,-0.4346245907023397,-0.34903458045433533,-0.6055003916157503,-0.5018175260114874,-0.4049056305216184,-0.2600539136437148,-0.34078088612807356,-0.176260665204793,-0.19052155749082614,-0.05390674048856687,-0.5248029246477687,-0.5314639624560435,-0.3795512177965541,-0.20752690873166382,-0.5486816970437967,-0.09770984271008573,0.0853409187520789,-0.04386411781711037,-0.4466344829735741,-0.12599009837458316,-0.18151887371239897,-0.33851425542533464,1
13.4,2.25,1.925,2.725,11.65,12.35,2.025,5.675,830.0,124.0,104.0,158.0,646.0,722.0,111.0,334.0,19.0,11.0,11.0,16.0,14.0,15.0,11.0,17.0,-0.3846869513526993,-0.24668575817827712,-0.1189385564131717,-0.28865637287784723,-0.22839650518256457,-0.28986367901410753,-0.20668530369073784,-0.1949247559732889,-0.2225352439978008,-0.28258577219248504,-0.18525418576360064,-0.23303777523403302,-0.22544642186049577,-0.35894561610076303,-0.10136303511478117,-0.2668072270819925,-0.05176297115405912,-0.13085113689412647,-0.2785499400632374,-0.07721798421007571,-0.3135361369083613,-0.38449396001414177,-0.119746031863399,-0.34608293110005667,-0.02548954639559746,0.03911921513302458,0.013577624454882711,-0.380527040744889,-0.07681853440484994,-0.34509028410852527,-0.08002211397484225,-0.5105923908453537,1
14.0,2.45,2.25,3.0,12.9,14.075,1.85,5.875,931.0,144.0,130.0,186.0,807.0,829.0,102.0,396.0,19.0,11.0,15.0,17.0,19.0,15.0,12.0,19.0,-0.6233843771919031,-0.47738838444175985,-0.27833126048725915,-0.42301795705059037,-0.43867199821468184,-0.4759375702792638,-0.292410803659427,-0.42690421712363913,-0.27281879623647376,-0.16703897787617392,0.03260297957838122,-0.24726791295548262,-0.39977286674846635,-0.3032798329300844,0.2633076343723276,-0.004444439159972498,-0.2913344228229505,-0.10588936411549553,-0.18607028979227844,0.1158089382999015,-0.16893681871645422,-0.22588138336245037,-0.06456303484063053,-0.21582484483133096,0.03447794474119474,-0.036163174032981006,0.06503888838756403,-0.18700683687795505,-0.6356870324197655,-0.09159217312959107,0.18172828214407316,0.005910515288399463,1
13.075,2.45,2.0,3.675,17.7,11.8,1.95,5.475,768.0,133.0,133.0,236.0,1189.0,710.0,123.0,343.0,12.0,11.0,12.0,17.0,19.0,18.0,16.0,14.0,-0.25803213163825267,-0.19115816142692835,-0.31244862766468173,-0.13853381394074638,-0.033205942787102406,-0.13121817975719308,-0.1573053871761146,-0.4181860007314291,-0.2766091378667358,0.04269991381044013,-0.12765899077693268,-0.25836544058451666,-0.4831681575022915,-0.40890993584111773,-0.37074390345645,-0.3611150953392952,-0.4806497074965738,-0.2188375238121811,-0.13133999134069194,0.05495877024267759,-0.2117401622895784,-0.20832584469248777,-0.03471669081725247,-0.03734958289076136,-0.4516480707455325,-0.4369933444880879,-0.18823777615819112,-0.08250885575381035,-0.29209901951452577,-0.016493423855913864,-0.3987678487018037,-0.16473178946921824,1
13.65,2.55,2.225,3.025,15.5,12.9,2.0,5.175,827.0,175.0,142.0,199.0,994.0,681.0,122.0,306.0,17.0,15.0,14.0,15.0,23.0,13.0,17.0,17.0,-0.47896856182366176,-0.38388678532351345,-0.2056218092610866,-0.08766841275129797,-0.3600408563830884,0.0911787053344073,-0.07466026781448432,-0.08456986578203869,-0.41181012377253584,-0.463979643393739,-0.3118401765298051,-0.25835258629056934,-0.4829705925467649,-0.32160569271633876,-0.11065618180409426,-0.07875715768489211,-0.23747909570438985,-0.05004176827478009,-0.14240800010177979,-0.16671906665943223,-0.035039444202145234,-0.06111824677999274,-0.23964121293346657,-0.106117964376022,-0.5973649907586397,-0.64856601792058,-0.44691451360682777,-0.4269954907347523,-0.004383318826466897,0.28374602783530173,-0.23926643144607088,-0.08671173564761964,1
13.525,3.025,2.7,4.55,15.425,14.075,2.15,7.05,850.0,190.0,169.0,291.0,1001.0,771.0,126.0,414.0,15.0,14.0,14.0,18.0,20.0,15.0,14.0,17.0,-0.375826070902225,-0.3068433775367957,-0.40350805456071287,0.014240237482739943,-0.5335948709772268,-0.41677581114611817,-0.4099410136755777,-0.27633675601517543,-0.48655680289618497,-0.3177531395446219,-0.41732603627177695,-0.47383940061355445,-0.5089685233562159,-0.3039571530742771,-0.47887090680339944,-0.5603377833692824,-0.36252205685321814,-0.22605809021588927,-0.26103785344322256,-0.27188059217717936,-0.12561944117690244,-0.15642788236716174,-0.21831680839585438,-0.12226772455621503,-0.5729185893062062,-0.5104261439199899,-0.2746654921085877,-0.23431503324370181,-0.20797959536253113,-0.10479848339740842,-0.4764232164174598,-0.22071559452747544,1
14.85,2.225,2.15,4.125,18.15,13.225,1.95,5.075,977.0,142.0,122.0,288.0,1293.0,824.0,122.0,317.0,17.0,13.0,13.0,20.0,24.0,17.0,14.0,16.0,-0.6384087294172848,-0.47998120192958743,-0.47941028807804537,-0.3193032587943981,-0.45382703436775257,-0.6920557539873811,-0.18809579576241692,-0.28848764553929906,-0.3867770453907976,-0.5005815258149033,-0.27249572817379575,-0.10974795139489667,-0.4482812469096714,-0.26610231198064604,-0.3458795504919806,-0.19754199705441028,-0.839510778263823,-0.5114977030159029,-0.3843239386079154,-0.23028613924103156,-0.48573415714465035,-0.44537245227021244,-0.3697759506752822,-0.20275949259296014,-0.4187337727830088,0.03748709907085351,-0.3060205123523422,-0.34025434709500413,-0.3334641991945971,-0.18637541561542728,-0.17893541198924423,-0.04884445726177541,1
13.4,2.575,2.35,3.675,16.075,15.625,2.1,5.125,850.0,155.0,123.0,219.0,1061.0,836.0,128.0,342.0,17.0,11.0,11.0,17.0,18.0,10.0,18.0,15.0,-0.5526001030357224,-0.5766200358325286,-0.46898417922416813,-0.425793994477637,-0.3918632508552316,-0.3923592885122358,-0.3466994532315347,-0.4836216208953873,-0.1859581099796993,-0.07696277527944838,-0.2605440952459484,-0.2978454361982283,-0.31213856481231167,-0.36614280367297136,-0.2701359025130951,-0.4987365723835173,-0.3810033005213724,-0.2867043930702723,-0.19044167961726843,-0.45167507070932095,-0.280886096525097,-0.24144384563576018,-0.4508317596599626,-0.5108174862612485,-0.36532963687830666,-0.02114676845182291,-0.08738837975596062,-0.1510236900288938,-0.5084095901030732,-0.24440265509147518,-0.184991981064106,-0.3644071995789929,1
15.975,3.025,2.85,5.275,23.025,18.55,2.325,5.325,979.0,174.0,161.0,326.0,1567.0,953.0,131.0,337.0,18.0,18.0,13.0,17.0,20.0,14.0,18.0,13.0,-0.46396154872068357,-0.3447714248128617,-0.32587553261875357,-0.20235005879733833,-0.27574667145244447,-0.25024673234338024,-0.47879405282840504,-0.20224737057253714,-0.3463470278439728,-0.47988389085494565,-0.5430400432149693,-0.11214596177393657,-0.6820992516642556,-0.6204120537842467,-0.6490377342178806,-0.49839052608752604,-0.7117225037713624,-0.546857604154229,-0.5008097772726833,-0.28459274043875954,-0.04532135927743965,-0.38283853703110643,-0.3114875426027829,-0.05123859707470119,-0.49788428174748056,-0.2706423867372951,-0.22107991748903982,-0.2125046271508196,-0.4553205986615903,-0.16718778468299164,-0.18347367455016084,-0.2463986276280252,1
12.8,2.1,2.25,3.95,19.4,16.925,2.1,6.725,805.0,114.0,143.0,259.0,1224.0,1007.0,127.0,399.0,18.0,14.0,15.0,18.0,15.0,19.0,18.0,14.0,-0.3404575005075531,-0.6803939186874984,-0.19903379182245265,-0.3908899092650928,-0.058338565220787314,-0.005972422200102342,-0.2557424912226023,-0.10492193401885863,-0.28684340761051236,-0.08789506588673099,-0.19453678128714352,0.11415007473595894,-0.43917526132885176,-0.0950404406664377,-0.2101956687073783,-0.05308349744768807,-0.5734419832453043,-0.49647355116333985,-0.538775067388096,-0.26425394915831474,-0.6103192214055818,-0.6072053349432226,-0.5271498036367057,-0.07365731747755691,-0.3844279432793442,0.027128002762045446,-0.047945987303409855,0.006765499572944747,-0.3482511831473546,-0.4802862515462813,-0.48096564620222015,-0.335723965979489,1
14.825,2.675,2.525,3.825,14.8,9.875,1.975,6.175,1023.0,155.0,145.0,240.0,918.0,547.0,108.0,408.0,19.0,10.0,12.0,13.0,16.0,14.0,12.0,19.0,-0.5121689078618025,-0.3066485131931769,-0.1986457624349014,-0.30536556012079924,-0.08535480328737288,0.022113215942449808,-0.5011364368518476,-0.11364915025503777,-0.24966534751823774,-0.07851156565364267,-0.2939972929485047,-0.18451642528659126,-0.34233387482037525,-0.15165773827197748,-0.22160183449799226,-0.24049217477519735,-0.4332080213036462,-0.14712672737365776,-0.2566355890947715,-0.5231857740438994,-0.14243480564948316,-0.3236554595403052,-0.3499504959116478,-0.20871103892223564,-0.11313356688799901,0.031380303632721804,-0.08258024551524283,-0.22222176473270955,-0.719991139099213,-0.6581403463787322,-0.48901267705666435,-0.38555101361096006,1
11.55,2.975,3.15,4.025,23.925,16.3,2.2,5.2,680.0,148.0,171.0,206.0,1607.0,1022.0,99.0,339.0,13.0,14.0,14.0,13.0,18.0,16.0,13.0,21.0,0.030691237429434616,-0.16180221794219982,0.02286919315169502,-0.2910414828506086,-0.013301284865762184,-0.4457761538775267,-0.22805466298408014,0.012023978057625416,-0.43604674303763924,-0.6427939222212131,-0.4472760806937377,-0.3408466398504354,-0.08468477171557093,-0.5295045816126482,-0.14543190484435434,-0.24596254800012798,-0.734974207648584,-0.5730565591300172,-0.5958432098883357,-0.508281606018838,-0.5876610021800743,-0.5613606683469792,-0.6213871798520753,-0.4806348458337941,-0.006647274074952834,-0.0601507463185101,-0.09641007431018946,-0.14522498399198222,-0.5041489359977117,-0.14629517981773546,-0.16774339752772685,-0.20006392944562865,1
12.95,3.175,2.675,4.25,17.55,15.825,1.925,6.875,756.0,153.0,148.0,258.0,1190.0,930.0,116.0,473.0,13.0,13.0,13.0,17.0,18.0,13.0,9.0,17.0,-0.22000855261857324,-0.1292972119333987,-0.3281533505321795,-0.3271362320027002,0.05649235523373348,-0.17441049854513935,-0.43205186097802195,0.11111959549173483,-0.4126150417474462,-0.7414558744695496,-0.47633868690486747,-0.4224760613645564,-0.5223718316542124,-0.6085511499588684,-0.3958109339165983,-0.2811135380481796,-0.7127469626712294,-0.5901947416236825,-0.5231908963427544,-0.3918551015290903,-0.6381494130575892,-0.6220554080456271,-0.6111186224684911,-0.6013338087135888,-0.2279692582743125,-0.1100248469680974,-0.13155374732166766,-0.2065413403173313,-0.5615383163971096,0.07769446812036315,-0.13344039255931453,-0.280568169265369,1
12.425,2.825,2.5,3.7,13.5,14.1,2.125,7.1,755.0,150.0,142.0,249.0,853.0,888.0,133.0,488.0,15.0,13.0,14.0,18.0,19.0,16.0,14.0,19.0,-0.3256386066128806,-0.1905919863535208,-0.30303421353046134,-0.29959979047831614,-0.15506787397355096,-0.0999919125568354,-0.21883668846702134,-0.23755436731771973,-0.298844328408565,-0.4510469039454597,-0.4204488969469283,-0.47550557682425393,-0.4916568755521538,-0.2474285886021187,-0.5261887766133524,-0.2194722864837099,-0.3485903817831352,-0.010249010962773147,-0.004535332674474167,-0.1732322421755807,-0.5402514120746432,-0.46702951471073295,-0.5068709824170387,-0.5940601922737263,-0.5068271399729216,-0.2738295018557588,-0.3165533925441998,-0.22811189484776007,-0.42393899084818787,0.16964219678568343,0.023434874042970663,-0.19262141947605896,1
13.35,2.7,2.65,3.7,20.375,19.475,2.4,5.75,888.0,152.0,146.0,216.0,1429.0,1230.0,141.0,370.0,18.0,11.0,13.0,17.0,20.0,18.0,16.0,17.0,-0.4900472975631092,-0.30661690025422383,-0.39837643341435547,-0.3578001304933579,-0.19499824730205037,-0.3938957643443088,-0.32559022135866883,-0.5528489491502967,-0.23358754476808422,-0.24081941489565326,-0.345665438908574,-0.48957404634377244,-0.26749674711805027,-0.14122663596499163,-0.19252532462041594,-0.15010407088345792,-0.5984034497181584,-0.5963641560221512,-0.35303358223561465,-0.43700477990878556,-0.4495585678972538,-0.6791646086691183,-0.35135292958118214,-0.6023977792607251,-0.2831366237320218,-0.1682179841082356,-0.12227567314745143,-0.26043126882418943,-0.3534011289420627,-0.01057604712632583,-0.21878799404450305,-0.5195081343951969,1
12.95,2.1,2.3,3.075,17.925,15.05,2.2,5.75,906.0,118.0,147.0,190.0,1130.0,958.0,140.0,369.0,20.0,15.0,17.0,17.0,15.0,17.0,18.0,16.0,-0.6672655152653767,-0.3887916146040046,-0.4886670426849103,-0.42860520785793677,-0.27654923141914234,-0.3029527936848437,-0.32136072445424674,-0.145091941351435,-0.3516611408326506,-0.2537462358318026,-0.0016200692478897263,-0.07591133291222549,-0.20679687363231258,-0.07170075639046755,-0.005032458564635851,-0.06290086095610826,-0.3814902564390708,-0.41700361992366425,-0.2568079562365331,-0.22319650491962056,-0.39282798475939285,-0.3455702985903505,-0.29850312550191604,-0.2825774123538081,-0.46041554570012483,-0.22430386555481185,-0.10536096393901914,-0.10622170392140788,-0.2128400566505343,-0.5427618742694071,0.05056199892191891,-0.24643430525685248,1
12.15,3.175,2.15,3.25,17.4,13.675,2.35,7.4,757.0,196.0,142.0,193.0,1040.0,808.0,158.0,467.0,15.0,17.0,18.0,16.0,15.0,17.0,18.0,16.0,-0.3674796398738809,-0.45353276872692316,-0.4081721392736785,-0.19666556572011992,-0.7609690940172398,-0.668068780024657,-0.6808717907855799,-0.41903762404754435,-0.4729211624057433,-0.1210889435864813,-0.2049113496074642,-0.14060016861234687,-0.2585838994234344,-0.09300287395898957,-0.3553018598925407,-0.17715467875806032,-0.27148565806368,-0.378773034195718,-0.04857776984379561,-0.15377569727395948,-0.43503503893284157,-0.48898782274574254,-0.23597917032231694,-0.1334409083915313,-0.44285633921239753,-0.32956093181240426,-0.045176825812023216,-0.14811088752485005,-0.15498033904618505,-0.04177903470417373,-0.07449493679511549,-0.020727026406382167,1
11.825,3.425,2.65,3.875,15.75,15.6,2.075,5.075,754.0,186.0,154.0,223.0,1027.0,856.0,134.0,323.0,16.0,13.0,13.0,11.0,15.0,14.0,13.0,16.0,-0.5511212470889391,-0.5353480851781955,-0.2518545901846976,-0.11887173728563173,-0.5394937411039985,-0.45698836462084097,-0.44967190397737167,-0.40187803360042584,-0.3329887291409423,-0.1335866045595754,-0.2567734095885248,-0.27743447769330754,-0.2707653221426664,-0.2328217275770757,-0.39840049770582237,-0.1764367788186449,-0.49270821663132097,-0.6984837939777464,-0.474174396216639,-0.34954668950626683,-0.24403690194882807,-0.5684000711906042,-0.19152685731055127,-0.2975257932438234,-0.534266938475174,-0.03027947355747265,0.22747459359073463,0.080283814028756,-0.15839028290904197,0.14209337524062587,0.06232141295811344,-0.20136173282472622,1
11.55,2.475,2.5,4.125,19.05,13.55,2.025,6.275,813.0,130.0,146.0,232.0,1097.0,671.0,117.0,430.0,23.0,10.0,16.0,15.0,16.0,13.0,16.0,21.0,-0.44309667645180917,-0.11127994229852618,0.03787502545574353,-0.10730860697343816,-0.3313105074343084,-0.2111741783044034,-0.45632219487732834,-0.2212859745843859,-0.33732947865187335,-0.37082512712892357,-0.2861465821642237,-0.30587664684938115,-0.520211465956629,-0.6516640925093568,-0.44670593011086884,-0.4276862781696906,-0.2321310923282226,-0.20930149854922817,-0.22523079722777606,-0.1616531347154933,-0.08549023141793154,-0.3747969293620793,-0.37409728674641163,-0.21923034008005599,-0.3715173135954741,0.15624107497093503,0.03179908380331612,-0.11241742776884037,-0.4141364215698829,-0.018076842617026672,0.18214432453400284,-0.0369534391838191,1
11.225,2.375,2.325,3.85,21.0,12.0,1.725,6.5,647.0,118.0,124.0,225.0,1446.0,778.0,101.0,427.0,10.0,14.0,14.0,15.0,20.0,18.0,9.0,16.0,-0.16093955819868877,-0.4746224725461208,-0.2465353932839439,-0.321964584447883,-0.014990980453582386,-0.16791016795128996,-0.25937967251328337,0.029239260587490087,-0.2659319491046967,-0.35799960381732054,-0.11238096151592318,0.053973601516992785,-0.4115636703556262,-0.3878786814987188,-0.170942475073524,-0.22178010317623384,-0.5472240205384957,-0.3728888858068787,-0.09559107208338248,-0.40025851813294905,-0.38548482661262035,-0.2034358580966533,-0.2973521615101066,-0.048757153371110674,-0.26890753828181463,-0.17503484620229198,-0.19879185481028294,-0.20211000820945055,-0.6005228583193866,-0.4118329306956565,-0.2811496441018005,-0.22760254761003734,1
12.925,2.575,2.225,3.0,17.95,16.65,1.3,5.525,823.0,159.0,119.0,174.0,1098.0,954.0,65.0,347.0,15.0,15.0,14.0,14.0,19.0,17.0,10.0,17.0,-0.2508791189550746,-0.3981339512251565,-0.06820050885685508,-0.35603629593514213,-0.2703690135621643,-0.36674811837673194,-0.13741174689527458,-0.39327860653887803,-0.17694309030543934,-0.19969664081643707,0.0642493979575459,-0.09859045417028682,-0.4338737716222576,-0.3827396344341205,-0.07958462731497405,0.057780452138638486,-0.4863334110532564,-0.3751582960057804,-0.4317182039310148,-0.4690768177380518,-0.3382837280138276,-0.1468667228015255,0.0008778202459357275,-0.16228759092259282,-0.14842215574222523,0.25731197337128126,-0.029791179459170283,-0.002808744991563295,-0.46930640499483395,-0.33117715091739663,-0.068580187587463,-0.40742719681222817,1
10.475,2.375,2.15,3.775,18.8,14.85,1.8,7.05,649.0,131.0,132.0,226.0,1009.0,832.0,121.0,483.0,16.0,15.0,15.0,16.0,12.0,16.0,16.0,23.0,-0.11978179809974888,-0.41535697206859207,0.050461144269804366,-0.10131554323457084,-0.058813913677272296,-0.4409687049885838,0.13426116843626582,-0.07512606551564614,-0.41080919539598254,-0.3705535938287458,-0.11721471042079039,-0.25576967395334393,-0.3751553736238383,-0.323145264872988,-0.16596005786222495,-0.39686837727548363,-0.3487220961829563,-0.5538883386496039,-0.5000354804823736,-0.326096760928928,-0.27725709130034615,-0.3257664050045186,-0.36272087681842163,-0.1575108326774285,-0.3096056329570871,-0.3519372833516226,0.20759990478374932,-0.17352797333088912,-0.7935274359703526,-0.5250902887127044,-0.1611086673410202,-0.1426204032901133,1
11.325,2.25,2.175,3.5,21.35,12.65,1.725,5.3,708.0,140.0,142.0,228.0,1335.0,871.0,83.0,347.0,17.0,8.0,13.0,16.0,19.0,19.0,11.0,14.0,-0.2474123757062561,-0.34207069237213517,-0.19594996473580678,-0.29026638449337794,-0.23423076111760888,-0.03321525337661527,-0.02549690036739483,-0.4131345195784703,-0.5577907521720905,-0.34885822230781827,-0.3421581177720595,-0.4704903531376439,-0.7654474878131879,-0.7773897408004923,-0.38545875337388297,-0.44235594850591087,-0.5351584486110141,-0.714259303505279,-0.36408865852038425,-0.3772550231793408,-0.5491526684752486,-0.3522095066616389,-0.4758816576286953,-0.3758841794516801,-0.05533171824152507,-0.3390927235776918,-0.10597985312855907,-0.10893486275214236,-0.6054161813767749,-0.4895815138778195,-0.33552676261217257,-0.3676312162166318,1
12.8,2.675,2.15,2.6,23.95,15.925,1.9,4.8,770.0,157.0,136.0,169.0,1605.0,1021.0,105.0,318.0,16.0,12.0,11.0,16.0,21.0,15.0,13.0,18.0,-0.5223934073575394,-0.6114076116532761,-0.5967263891769137,-0.42235048968448685,-0.4325081630545069,-0.5135328714460436,-0.43998248873246815,-0.4050325032009861,-0.43853361833234106,-0.2977197730685369,-0.11862756199350634,-0.18223480200655284,-0.5314704437958034,-0.3894900793798389,-0.28338443513337674,-0.3516033107272971,-0.49726293230332075,-0.21875902613376708,-0.13796902614625722,-0.338394337142524,-0.38208078839927145,-0.2784907195498422,-0.26369768717638226,-0.2244389781834359,-0.36736980400366004,-0.4299271802006116,-0.06224438173320901,-0.13285878584455843,-0.3658085236382335,-0.09243509081108968,-0.1484269841873174,-0.3442258277677011,1
15.55,3.325,2.525,3.125,20.75,15.925,2.1,5.95,1041.0,178.0,143.0,175.0,1409.0,955.0,127.0,343.0,17.0,12.0,15.0,12.0,16.0,17.0,12.0,12.0,-0.5268970833388031,-0.4573244614313117,-0.22492317741748158,-0.26176930937495546,-0.07703750957707503,-0.288242181128365,-0.11580555440605593,-0.39063515924658143,-0.27716621423724275,-0.34218690730150536,-0.240926515958706,-0.29290981889146234,-0.21499779884521308,-0.24453127533334507,-0.27990705411894834,-0.29215995556049656,-0.8670258274281174,-0.6762349527341879,-0.6327723064795987,-0.30312190293067137,-0.41194173520419636,-0.28978597574661635,-0.38814311718754896,-0.174845498441306,-0.43549319581289664,-0.3173452216691394,-0.08947377365910959,-0.003460307374858947,-0.38711042033927284,-0.41289374110743504,-0.2910356248810075,-0.18692183831656534,1
11.475,2.75,2.325,4.025,21.35,14.875,2.125,5.275,797.0,141.0,128.0,256.0,1534.0,962.0,97.0,324.0,21.0,13.0,15.0,19.0,18.0,19.0,11.0,14.0,-0.6290804952831406,-0.4752169629404798,-0.15028343095952612,-0.07597551472141785,-0.1397916587544057,-0.18858007446412203,-0.2584348681608682,-0.3025173134225155,-0.17277425142755387,-0.32476358177433695,-0.06401122310815252,0.014431049570859939,-0.514672697484021,-0.4003882903960705,-0.18724038907679735,-0.12317467031842448,-0.7448424828897124,-0.5674065329712805,-0.26169810545100985,-0.3005113142291021,-0.45443163992037466,-0.42281640775554913,-0.2302147182827164,-0.3574994024201362,0.04270875083346162,-0.05734564862756104,0.0642183792861499,-0.02478723066208648,-0.3174103356437365,-0.14354954791015911,0.0013575821465499607,-0.06439015359668754,1
9.45,2.25,2.375,4.4,15.125,14.125,1.75,3.95,620.0,110.0,149.0,294.0,923.0,813.0,111.0,234.0,19.0,10.0,13.0,15.0,15.0,13.0,13.0,15.0,-0.3772540039992625,-0.4291805040608047,-0.14542411736059635,-0.1082410304784151,0.2714760845555555,-0.11745438036825297,-0.27768699142276887,-0.029328260193820517,-0.4925661045210001,-0.127084299053816,-0.22340571305597767,-0.26304612809163713,-0.739850346626369,-0.4559320666675152,-0.3270738185936186,-0.2698184217292663,-0.48708950369058374,-0.39542065441746055,-0.4859197920888406,-0.506760839353035,-0.21597273891885385,-0.27219291601626666,-0.19729045474361837,-0.6387470470354382,-0.10604482528196443,-0.25981292546964707,0.1478734497767459,-0.3825014435311643,-0.1571865938540832,-0.12905997177510165,0.07754045328538813,-0.21891669837698596,1
9.375,2.35,2.3,3.9,21.05,11.375,1.7,4.825,584.0,109.0,133.0,235.0,1322.0,614.0,99.0,291.0,17.0,9.0,10.0,14.0,17.0,13.0,14.0,15.0,-0.6946579608133449,-0.5404303083643576,-0.2684187573586929,-0.10286994128487102,0.18554718751999108,-0.18099087000056646,-0.00028388917362746305,-0.16699663615465968,-0.324179523181428,-0.20534605125337146,-0.244952067900791,-0.1561800890990542,-0.4679435305253877,-0.3167570884169999,-0.33570216766895133,-0.1856565703663503,-0.30999485756776296,-0.5098722513343145,-0.00023412432960599787,-0.12487338637223264,0.06325220766520284,-0.19073564582933053,-0.03379770771065982,-0.20149416163155956,-0.20751994110103045,-0.041417056734292114,-0.20595909061553763,-0.15625105305712228,-0.2328133605506866,-0.1185099164780413,0.04722347786514246,-0.06410917792096316,1
19.825,3.35,2.25,3.075,21.675,16.9,1.9,5.775,1275.0,197.0,117.0,172.0,1357.0,1042.0,117.0,381.0,19.0,14.0,10.0,14.0,17.0,21.0,17.0,21.0,-0.6646367139845715,-0.5234836654320069,-0.3838108087895518,-0.22977379173782517,-0.44134880067953847,-0.46883793131353546,-0.2781522178786068,-0.10620101538039349,-0.05265656280803211,-0.1724169597336191,-0.41596137140784484,-0.1549476870338667,-0.4369041914840726,-0.5188476592050367,-0.4031544857490741,-0.44327520460290853,-0.3287791633600334,-0.2416872813551654,-0.012300354541863777,-0.20280425190180518,-0.2030102318893183,0.029646879748036065,-0.2111778296635339,-0.3853590296290562,-0.28688829712869623,-0.027189201400230435,-0.3998736020020935,-0.3621830148108148,-0.468895101422682,-0.18972741331646772,-0.10806578077837121,-0.0904448099381598,1
18.8,2.825,1.825,2.775,21.275,15.975,2.225,7.625,1180.0,155.0,108.0,170.0,1440.0,1062.0,128.0,484.0,15.0,14.0,12.0,14.0,20.0,18.0,13.0,19.0,-0.38423233343861424,-0.1333821606522238,-0.47426527108625627,-0.3047053731067953,-0.2471243955612042,-0.24020501947044676,-0.3924945480792124,-0.046804572755347995,-0.3293544314356868,-0.4108659670219892,-0.4351601498676468,-0.20156402001558849,-0.12670634137997738,-0.16232904763136374,-0.2536399291681888,-0.11915513758380158,-0.48599013713768396,-0.20618733100003414,-0.05760888256048974,-0.16578028852540147,-0.412993054318144,-0.20741654066325546,-0.16005849741074055,-0.3230973120113217,-0.15287694456162984,-0.0016037274937720006,-0.11154259530272334,-0.21319549077303068,-0.3073945490805859,-0.15101352843452628,-0.21958554587906692,-0.42096100485097276,1
14.925,3.05,2.525,3.15,15.625,15.075,1.775,8.45,948.0,141.0,115.0,192.0,1004.0,865.0,107.0,569.0,14.0,10.0,6.0,8.0,16.0,16.0,13.0,16.0,-0.329430290049605,-0.053284171204999245,-0.2700274576357223,-0.32523337149288506,0.33944704599353365,-0.45587560631299356,-0.07711631768753927,-0.12995638419980401,0.16394030628571438,-0.30554793176408573,-0.0016049486909724244,-0.22954488392086575,-0.1762039718080718,-0.041695260240827856,-0.25764406203880946,-0.14830798112359808,-0.292574873474075,-0.03745170264519263,0.0244851905707708,-0.41044484481744764,-0.11051509717056344,-0.3085772656509661,-0.21849053362432366,-0.31470541203513325,-0.4256750029354774,0.01812130179171872,-0.09276010877457477,-0.3414344290342582,-0.40342429527847706,-0.04591855054257655,-0.11235947607352927,-0.45991916094322594,1
11.55,3.125,2.5,3.05,16.275,14.675,1.975,6.4,779.0,163.0,112.0,172.0,965.0,717.0,104.0,401.0,16.0,10.0,9.0,11.0,18.0,13.0,12.0,14.0,-0.3333994840961544,-0.026290756347890833,-0.05261137064942631,-0.3561648973779127,-0.029719516677489583,-0.03705709753569566,-0.1374646986837954,-0.4941767496290271,0.06459671631333802,-0.027736346970231824,-0.21562986057429948,-0.359064817701812,-0.23858787261845038,-0.1045221018714465,-0.30246258266529513,-0.32029559214379894,-0.14239827246836267,-0.38661605508424746,0.011840932463632462,-0.4441076942357406,0.13374943280736523,-0.40742906622109587,-0.02480230597905404,-0.5234146318700496,-0.2717322013552458,-0.4136947260270516,-0.4370726272302722,-0.3286646312221601,-0.4275321614720153,-0.24612418687781168,-0.20743401193709252,-0.37827177410974827,1
12.925,3.075,2.3,3.525,15.675,15.35,1.85,6.825,766.0,170.0,125.0,192.0,974.0,888.0,91.0,396.0,14.0,16.0,11.0,13.0,20.0,16.0,13.0,20.0,-0.2991491686745094,-0.13392859054693393,-0.31547134965010093,-0.3674501274577794,-0.32477909094754837,-0.17369076173200518,-0.3076911407381042,-0.2571678458420819,0.011373470976241935,-0.4021409652974462,-0.07857251100300212,-0.29855380286854744,-0.18200279245048326,-0.5614107653512924,-0.19712882524645384,-0.4317172668158039,-0.3270981225833799,-0.3954482904066319,-0.2898710317016505,-0.23246435932100862,-0.3069228797916782,-0.5344046416557149,-0.3577462623659982,-0.4337105287525772,-0.003486957827501132,-0.11232357334395555,-0.19333625279798944,-0.054743955175216095,-0.3062918462231982,-0.21730231512894155,-0.19826815150449528,-0.22083223599622154,1
12.275,2.775,2.1,3.0,15.875,13.9,1.925,5.325,684.0,150.0,114.0,202.0,1072.0,878.0,116.0,337.0,18.0,12.0,14.0,22.0,20.0,19.0,16.0,14.0,-0.24766793168409734,-0.13182135510230558,-0.26687463196614003,-0.25846403956565434,-0.0718013460754065,-0.22205386660866527,-0.5174229518162138,0.026713066085291448,-0.2002599863001808,-0.08851428056521246,-0.12929659731993318,-0.3033086291577341,-0.6005932152184069,-0.2664794500772072,-0.2473958926105605,-0.11049937903184838,-0.5120369518557724,-0.23684260018983647,-0.3865958007501512,-0.22609391278220173,-0.6138001644243338,-0.5869181000890614,-0.4867528715585504,-0.5120776279635089,-0.4510363318010411,-0.3437822023223208,-0.38852511687079755,-0.4402199146650897,-0.7136122863466986,-0.6053227834452239,-0.504024745671865,-0.2348985700890478,1
14.625,3.1,2.325,3.35,18.55,15.525,1.825,7.425,926.0,169.0,123.0,210.0,1245.0,956.0,104.0,495.0,17.0,12.0,12.0,16.0,15.0,16.0,15.0,17.0,-0.5236273993154802,-0.18465262394936446,-0.5299988260333693,-0.6769573351275661,-0.37590381071493806,-0.26293413685521216,-0.6843760345009475,-0.4311835170136268,-0.33436129480712556,-0.17351637316370572,-0.4434191104672376,-0.4447343270310405,-0.5282343802904172,-0.4892668054954025,-0.48946835237026515,-0.5228488251822652,-0.5434602626155339,-0.17306740903587384,-0.19765753961528942,-0.18089506995662696,-0.3146070139537152,-0.5434537675677958,-0.26128076896708097,-0.5421092285595893,-0.21175054449392908,-0.022529022585784972,-0.01344003532021808,-0.19858860819481672,-0.5713258392426539,-0.29199825709447347,-0.22018908024371528,-0.38927266012436207,1
19.825,3.15,2.525,3.7,23.575,15.8,2.225,8.25,1316.0,188.0,140.0,221.0,1546.0,981.0,123.0,550.0,21.0,16.0,18.0,17.0,21.0,16.0,12.0,21.0,-0.6465518785390267,-0.5132975799661388,-0.2369527956649796,-0.2635332278396567,-0.42670031678537207,-0.5173443177117337,-0.15671527466003413,-0.18383984421212138,-0.18834483735180613,-0.24226508710541556,-0.14888442130454774,-0.11535615224055304,-0.4541845374212581,-0.11863008160018848,-0.0898757790847688,-0.2542392829441221,-0.483645282195672,-0.1736652937924617,-0.14623151120947972,-0.32198825989200386,-0.3192183744153588,-0.3253418653129908,-0.34963918687510304,-0.5117706620241185,-0.128963622380528,-0.0823241793269801,-0.14293416391945116,0.08290218272387809,-0.5065891130070794,-0.3673116660403154,-0.06110403193949152,-0.24406046183411742,1
14.25,3.0,2.225,4.2,24.1,13.75,1.85,7.475,991.0,181.0,139.0,270.0,1567.0,793.0,115.0,499.0,16.0,14.0,13.0,16.0,20.0,16.0,12.0,20.0,-0.6687074951869851,-0.6302309205207864,-0.5324168370345391,-0.39096990248894825,-0.46566591585025346,-0.3003974765287215,-0.20221118759145734,-0.2425254698999077,-0.34354823964094705,-0.23927869918733072,-0.12321669046915087,-0.34007146509298675,-0.5272440730191105,-0.34944601614305904,-0.3267695972567938,-0.32858569729117615,-0.607844856743727,-0.406324740180124,-0.39649933581718133,-0.37470585876221807,-0.6157164878937745,-0.44462977451245783,-0.643682197444108,-0.6446365233485045,-0.3981094290571689,-0.42292010017355397,-0.3114829858643617,-0.3124674776258623,-0.5046439694359435,-0.13658012259166435,0.06460038287379338,-0.2202850714124116,1
11.3,2.65,2.425,4.25,17.075,12.225,2.425,6.05,777.0,145.0,143.0,275.0,1064.0,731.0,151.0,395.0,20.0,14.0,13.0,15.0,17.0,10.0,19.0,16.0,-0.6248872871002326,-0.5102888889251922,-0.27252348303251506,-0.3209849565954985,-0.291489682379174,-0.031206502576217644,-0.19146539095170165,-0.27220449009196357,-0.23213802362935398,-0.17447027392868347,-0.3861828395843575,-0.18402625864360592,-0.48929484495957876,-0.25073878648941794,-0.34871994213296437,-0.2768280921905211,-0.37401244956215524,-0.5084165390241607,-0.10408701217830107,-0.28842151784572123,-0.0965632572877168,-0.20346958462773457,-0.21452756691121236,-0.35359852931326985,-0.4273369673974095,-0.18094109173012687,-0.2520719864872501,-0.18403347934311695,-0.3841188690002892,-0.3761414995078377,0.11083838792172286,-0.30561440351060437,1
13.375,2.85,2.675,3.925,20.3,14.925,2.6,8.625,862.0,154.0,119.0,221.0,1194.0,848.0,155.0,611.0,13.0,12.0,12.0,14.0,16.0,15.0,12.0,19.0,-0.11818743677894226,-0.26316268189349196,-0.20727778458998977,-0.251249436234305,-0.09712765084278305,-0.14776792131155758,-0.10520375391436691,-0.23388017112416906,0.21052525329096206,-0.35805156409806044,-0.07674041543447263,-0.3482327817510135,-0.13376841291251235,-0.29416633539454173,-0.18625802284111045,-0.22966025098377663,-0.2599245508944629,-0.28995972380694646,-0.2570281769801272,-0.2696564611393287,-0.05282294500028398,-0.24383309019240565,-0.18078841398758486,-0.3214961885431291,-0.2805099626788601,0.0199151969825485,-0.17413031952796862,-0.19848802008237615,-0.4354039188359588,-0.1755501155989577,-0.15069231772687805,-0.3771055340103118,1
11.975,2.825,2.05,3.525,15.875,13.475,2.5,7.075,727.0,170.0,108.0,202.0,1087.0,748.0,136.0,443.0,15.0,9.0,12.0,15.0,19.0,13.0,14.0,11.0,-0.1317540850370301,-0.12904761580433147,-0.13997057239635974,-0.24379447619639258,-0.2516429008284407,-0.27846498155760924,-0.22449614617125843,-0.4434771986668834,-0.21611783264759374,-0.18345716441400256,-0.3750522235325121,-0.3246217721268859,-0.24281659070679104,-0.23884128559476323,-0.14169024620573722,-0.36982674376840174,-0.45192504616297985,-0.24537211974169337,0.21957780963227572,-0.20997476496843523,-0.2780665784590358,-0.39081939226232104,-0.25386741348959263,-0.34014209330107636,-0.30213236633934226,-0.3179231282380636,-0.36436239989213143,-0.11203088985389183,-0.30428451502474824,-0.07286645154877246,-0.06859442556804814,-0.2738952197766047,1
14.5,3.925,3.0,4.8,19.75,17.65,2.6,6.3,964.0,218.0,191.0,299.0,1384.0,1109.0,149.0,402.0,16.0,13.0,16.0,15.0,18.0,16.0,17.0,17.0,-0.28346370865408843,-0.12595172019488987,-0.09655570603271336,-0.24622480797125493,-0.26905218878552634,-0.25180518871731933,-0.23857928433063766,-0.39582675682900176,-0.3884647027408358,-0.06039262869423719,-0.17180841528436408,-0.4500459390648705,-0.5222255244876255,-0.4566603565775983,-0.43589521953424987,-0.4660978945820785,-0.6504080353953935,-0.4140251276952535,-0.20817904774643015,-0.1393230913113162,-0.3613373595978146,-0.07884761643031647,-0.11008458670127318,-0.32430559326008174,-0.2377498804165265,-0.1577340914798638,-0.29212232697072454,0.0007947709200681233,-0.23976432356135347,0.008394210512341455,-0.06903753172220743,-0.18141645567159628,1
17.7,3.125,2.675,3.625,18.575,18.825,2.275,7.9,1197.0,208.0,164.0,219.0,1332.0,1153.0,141.0,530.0,16.0,21.0,15.0,13.0,26.0,14.0,13.0,22.0,-0.4504841017509776,-0.16020124907357555,0.031401005774510556,-0.21827221140886768,-0.4788352392342413,-0.5040231674795086,-0.2846669529812027,-0.3074822452329493,-0.39249804421415724,-0.3035751456366612,-0.3715662893596515,-0.2449485487789754,-0.34082030544816516,-0.3388982110871034,-0.31715253238298957,-0.16067297581002163,-0.5174042990345613,-0.1254623934956439,-0.004407637719851518,-0.040756649936170376,-0.35116975756526553,-0.3009226393123455,-0.3506671871744839,-0.3422926471377284,-0.7115060798864732,-0.4628711397697501,-0.41699072573384754,-0.2828720862308393,-0.3691079300475168,-0.08771731607513177,0.06736183446475957,-0.4310913613042783,1
12.2,2.675,2.525,3.15,17.125,15.175,1.675,5.6,673.0,160.0,143.0,187.0,1202.0,967.0,103.0,349.0,13.0,12.0,13.0,13.0,14.0,18.0,17.0,18.0,-0.24781973241422164,-0.38798281064412526,-0.2631463714965561,-0.42230404669928134,-0.18424711202057528,-0.11290807045826981,-0.18367219467605717,-0.6217126765798369,-0.10568434637422566,-0.4506865602265523,-0.10574034436084966,-0.4056897514230146,-0.45387255461013226,-0.530100772877776,-0.3458427825575474,-0.5196234007400693,-0.70926690841634,-0.46724435518427754,-0.4489332581558667,-0.3039963731646123,-0.4296562980383261,-0.5102439895213096,-0.39480493833441715,-0.5303787063393537,-0.33744897528225226,-0.2338394758844603,-0.019902450765395267,-0.2474068807680323,-0.4615737675781207,-0.2531603057174212,-0.08680289984446934,-0.29570177440343004,1
13.975,3.575,2.35,3.6,14.375,10.95,1.925,4.2,808.0,199.0,120.0,214.0,802.0,658.0,114.0,248.0,16.0,20.0,11.0,13.0,13.0,17.0,11.0,15.0,-0.1991298761984656,-0.21948633312074833,-0.18255841912373658,-0.33993493898032406,-0.18488554756025027,-0.2617993291470724,-0.31942236253661416,-0.41350701269075313,-0.011114527668836702,-0.3309204336834258,-0.1330252547363438,-0.27390894982015124,-0.2716318394953945,-0.2424525727128691,-0.369438063543494,-0.32011552270325183,-0.05163136955598453,-0.03991718556333381,0.09896746797499964,-0.08086053054955136,-0.16751064229115978,-0.2282115513299787,-0.14524325382161934,-0.3934461427623963,-0.2646357001364629,-0.18089955239573505,0.170758701398814,-0.05295442248315144,-0.09621650692574403,-0.16910980290343058,-0.231926445453857,-0.26333261904486843,1
12.65,4.0,2.975,4.475,16.275,11.825,2.1,6.075,738.0,229.0,173.0,292.0,1008.0,750.0,130.0,372.0,14.0,16.0,17.0,15.0,16.0,19.0,15.0,17.0,-0.17767307512661668,-0.1568454692172427,-0.23223662953663615,-0.3568179021232564,-0.23870500708765166,-0.28532562216088075,-0.3503642660308199,-0.5409739600924653,-0.34042995157268097,-0.3175497846779561,-0.37869039769176144,-0.235769989024665,-0.4439515800912797,-0.404738499347265,-0.3818024396139982,-0.27791162058851926,-0.11496690158097447,-0.18573059504572428,0.04776535196545517,-0.15560041554835322,-0.18544941647599997,-0.313345843169393,-0.20656982723214432,-0.3285413976644238,-0.40076303423400783,-0.5031475304554487,0.10942019589999166,-0.1269839004758957,-0.2591015529638057,-0.37062132365361294,0.06420022309162775,-0.23419680656302705,1
13.525,3.725,2.175,4.575,14.95,12.225,1.95,5.9,771.0,223.0,124.0,283.0,998.0,775.0,102.0,390.0,16.0,12.0,7.0,13.0,23.0,19.0,16.0,13.0,-0.25545410329053253,-0.18341795981151932,-0.3235736055326004,-0.4445589500307314,-0.13992001824679118,-0.3100942213726914,-0.3013068074018057,-0.3314543842966668,-0.15785273331674787,0.08258317600054493,-0.31650503408321246,-0.15399421876969938,-0.3753043002619336,-0.1312968295445613,-0.4945547327244151,-0.2796589133187272,-0.5384681907380693,-0.2849714584675796,-0.0589679010608097,-0.1178272928786266,-0.5014691534855733,-0.2846208268089461,-0.18866426423517596,-0.0405182748674383,-0.30827151619918197,-0.1086840834169219,-0.4349729077559019,-0.5354127228324317,-0.25645178808437785,-0.012283471033278277,-0.26804797827173693,-0.3576588677407516,1
13.975,3.625,1.95,3.8,16.0,11.125,2.15,7.45,895.0,218.0,107.0,216.0,1126.0,672.0,117.0,493.0,13.0,17.0,10.0,12.0,19.0,18.0,16.0,22.0,-0.3863370886179726,-0.06912461749819357,-0.41348493928354124,-0.47200627829737657,-0.292706824702254,-0.1163836944212554,-0.24018690193414052,-0.2639584786598445,0.038461736993335806,-0.09880704068621102,-0.4061843834543245,0.216268502067684,-0.25278852019750137,-0.15666681632956564,-0.4520281420982516,-0.3010255031570851,-0.9136602617552169,-0.6949767064359464,-0.46703657217432876,-0.19795674877101632,-0.2771960060588161,-0.17628745286615746,-0.29599116335239084,-0.0021378359427974437,-0.2550106376486745,-0.07826355489043324,-0.46681054781878184,-0.2645634835683035,-0.32028716271219154,0.1634578498003036,-0.11208925198980138,-0.2684535826964494,1
13.075,2.7,2.525,4.075,15.5,10.075,1.725,6.775,794.0,155.0,151.0,266.0,1101.0,568.0,95.0,382.0,20.0,14.0,17.0,20.0,20.0,17.0,10.0,17.0,-0.4235942264591704,-0.4893090185352307,-0.33584648183717497,-0.36375235670282996,-0.4109065131846783,-0.5533128409169487,-0.4896433210519314,-0.396007704225108,-0.6178436700143546,-0.3821137890363226,-0.5889316871853078,-0.6190708367968563,-0.621598797372856,-0.4701646462902462,-0.5449697194317359,-0.6831936839648468,-0.7491156474072885,-0.6501327952018567,-0.7105478931778718,-0.19049319150258,-0.3407936099105141,-0.36302268227448226,-0.53888163375349,-0.13934337689832696,-0.07418437278421111,-0.16455675943936468,-0.1647351401882421,-0.19559162111242903,-0.33916907703859184,-0.24921023679505788,-0.17085782443765765,-0.13309248794218057,1
13.775,2.2,2.4,3.75,19.35,13.35,1.9,5.15,779.0,122.0,139.0,224.0,1387.0,853.0,107.0,289.0,14.0,9.0,15.0,16.0,20.0,16.0,15.0,15.0,-0.22231393462835738,-0.20535797474537018,-0.29837385758843804,-0.3480264575445901,-0.24956045336952135,-0.2566297423730579,-0.5169225719208206,-0.20426975207386752,-0.23320618299464183,-0.04186339044849869,-0.27949195168465363,-0.3184915133846148,-0.367924964163604,-0.23347869102315638,-0.18238247521574105,-0.2602456472988558,-0.7300014091895197,-0.3866890075067811,-0.49632629364396635,-0.3506289244784447,-0.4244700232083106,-0.11080631658665836,-0.5376962633038141,-0.40685716474273637,-0.12807566695560038,0.30504390698035844,0.1577340618803362,-0.14531097324100528,-0.4723243131833269,-0.32990057366515424,-0.42597377463021346,-0.3360951822467579,1
13.75,2.675,2.25,3.475,13.675,9.625,1.975,6.225,819.0,150.0,135.0,220.0,853.0,619.0,120.0,406.0,18.0,14.0,16.0,15.0,16.0,13.0,16.0,18.0,-0.23858574261195756,-0.4839212528035932,-0.2683086772345926,-0.4636610716515852,-0.09112863014530428,-0.24433410455088034,-0.21511314184585673,-0.3077673171687034,-0.20154993271844523,-0.08239226830030012,-0.11395229623853281,-0.25658029225302803,-0.5012668819711215,-0.30672666924455677,-0.21514438738583463,-0.37205337364820185,-0.5034970892372329,-0.3863214021593739,-0.24350089696704666,-0.28475276308589004,-0.510551468514155,-0.29406373299023963,-0.17684049941373073,-0.13575301133276071,-0.22559664133398644,0.11008652559157477,-0.10244885595481183,-0.26557912156402635,-0.3312047446569278,-0.2925037662500263,-0.2398613549668495,-0.20663926663314724,1
17.225,2.775,2.9,4.55,13.925,9.575,1.825,6.35,1064.0,141.0,162.0,266.0,865.0,629.0,118.0,390.0,18.0,9.0,13.0,12.0,20.0,18.0,10.0,20.0,-0.25115740236070194,-0.18798732685422767,-0.20505644390068306,-0.26858678690435805,0.08353883564090997,-0.08683456250354855,-0.13767390987991476,-0.4028615983071785,-0.24299196092392208,-0.1054920844623312,0.06216912147368712,-0.17336004910494482,-0.2639386817149117,-0.242273140449364,-0.08121469446026872,-0.31152653415587034,-0.3935662096089319,-0.2313457880514353,-0.01206999757384435,-0.2777242969217723,-0.5164411780298922,-0.2551301987430754,-0.4885351097437106,-0.4887415278545382,-0.5561524274614785,-0.5077450191806626,-0.33572430114454566,-0.36029553354980637,-0.2600805696644127,-0.14235567166148466,-0.26204794888636995,-0.5062973079164637,1
13.95,2.15,2.575,4.775,16.275,10.1,2.075,5.45,763.0,108.0,121.0,286.0,1105.0,670.0,106.0,292.0,13.0,14.0,10.0,15.0,19.0,15.0,12.0,14.0,-0.08140490225618716,-0.28678591281074944,-0.048263738964712866,-0.3298811852105847,0.2245318426454033,-0.28382372639503656,-0.08559875471866481,-0.23979897742619435,0.2314954458248787,-0.3059859725911636,0.23622161826201665,-0.4784458525317757,-0.1547041646715688,-0.16693676489799594,0.08594830196869217,-0.3053308759167737,-0.8392876744678436,-0.5825266687844697,-0.39974568413688794,-0.20160644150586418,-0.4877875298656164,-0.12258633333817653,-0.1938381378217556,-0.1743448245433893,-0.15627580404828495,-0.4530009170705805,-0.3623491491091308,-0.20072158979365093,0.05382656401899935,-0.25169239861480996,-0.23513119652685313,-0.29080535349701914,1
11.55,2.175,2.1,4.65,13.35,11.425,1.875,6.175,746.0,119.0,120.0,265.0,795.0,698.0,108.0,347.0,17.0,13.0,14.0,15.0,13.0,17.0,10.0,16.0,-0.5887894311205323,-0.34412934867627865,0.04686955697885437,-0.12491897637180967,-0.2779166857006556,-0.1011077898059391,-0.06983347312871492,-0.43661041200432466,-0.19483960813313458,-0.20252361144433412,-0.1655408103322807,-0.05835383156250878,-0.43272989154101293,-0.4745120801008229,-0.2734372147424961,-0.1867067495335746,-0.11898212476474582,-0.16905492152943916,-0.14040106637565808,-0.15571048595132195,-0.23305178455396713,-0.4105222336095723,-0.2739010736671444,-0.31408477229941356,-0.21090190482190466,-0.24065914824260423,-0.38852437950628305,-0.211103863944004,-0.38373466743269374,-0.3713920912951784,-0.1947006308737883,-0.24955503335719928,1
