0,1,2,3,4,5,6,7,8,9,10,11,12,13,14,15,16,17,18,19,20,21,22,23,24,25,26,27,28,29,30,31,32,33,34,35,36,37,38,39,40,41,42,43,44,45,46,47,48,49,50,51,52,53,54,55,Gesture
12.475,3.025,3.375,4.0,18.375,20.175,2.7,6.875,772.0,176.0,200.0,240.0,1176.0,1133.0,157.0,408.0,14.0,18.0,19.0,15.0,16.0,15.0,12.0,15.0,-0.3711283656876227,-0.19753309086219778,-0.33577463340472524,-0.32108106379979623,-0.15051299873800647,-0.2661351598061806,-0.16367841860574053,-0.49294585713020916,-0.20937076481245243,-0.46702462516799503,-0.18410716315772113,-0.5195815537910872,-0.2638692554351852,-0.38024714308254826,-0.24145156768825896,-0.4565442245354317,-0.4924073779223273,-0.3247212504656858,-0.21321724408388998,-0.3006818942843313,-0.30235573524807524,-0.32045684877482356,-0.29263150479655786,-0.3508525878066181,-0.20185598789227313,-0.23273389707242453,-0.11467124601395763,-0.2846220732707902,-0.22682280936616106,-0.1807086101632808,-0.04612093490170413,-0.3389217721777104,1
9.875,2.35,1.85,2.475,14.6,12.95,2.375,5.225,596.0,141.0,125.0,135.0,925.0,799.0,130.0,322.0,15.0,14.0,11.0,13.0,17.0,19.0,13.0,17.0,-0.3271451286559577,-0.3216553423569444,-0.20342024584082416,-0.18446267360639568,-0.30141201867925094,-0.4688612045789393,-0.18683218109326902,-0.36459641079702954,-0.4918425664105604,-0.2735299694739434,-0.25410411022772356,-0.17508621163494612,-0.19929329602199697,-0.0946203506778152,-0.2619674626094817,-0.1430914491022196,-0.5468884629728706,-0.34967011784735175,-0.28832613474822316,-0.21360681860129038,-0.553977570900338,-0.358984755422893,-0.6065632890388652,-0.4593326446932299,-0.2885756092766295,-0.18927428686641182,0.1339645503853916,0.21517870073579476,-0.21808030588477312,-0.4692691580663071,0.025722152065156018,-0.30468922653405534,1
11.025,2.3,2.1,2.7,13.825,13.1,2.025,5.3,690.0,124.0,126.0,166.0,904.0,778.0,100.0,324.0,17.0,14.0,16.0,18.0,16.0,16.0,11.0,11.0,-0.3599990929612578,-0.4662040696650595,-0.3283899963018961,-0.2437501013559153,-0.219206509081245,-0.3724050364272445,-0.3068096802469443,-0.13286395711988447,-0.6098935156317055,-0.5461034546175191,-0.4103790255271133,-0.09456193809117559,-0.4592104047549725,-0.18883713272775765,-0.003219435510249216,-0.02720999556504439,-0.31934997361067136,-0.0912767109834174,-0.287173878603454,-0.08052935072568336,-0.2854862278085028,-0.17643196606931139,-0.11620994490893756,-0.27074322336730783,-0.0667787582495804,-0.1527108999170587,-0.08400272012259058,-0.18287453967269698,-0.16083452496774,-0.4823445557427801,-0.13048509223449856,-0.30308746953908294,1
8.15,2.6,2.125,2.775,12.725,15.7,1.7,4.925,475.0,144.0,134.0,167.0,724.0,859.0,100.0,318.0,13.0,9.0,10.0,14.0,15.0,15.0,10.0,17.0,-0.3227936242217172,-0.2547628510493589,-0.339990980975817,-0.22677186651608017,-0.219068153045219,-0.29913899675557765,-0.17019867609206127,-0.19071649937455606,-0.4793078682393465,-0.5181489561846471,-0.3098662521629032,-0.3287906899129951,-0.34845278259489376,-0.23330240210796963,0.1545612324563694,0.056011594626319695,-0.20879271815362363,-0.04627298508195777,-0.38339263571710724,-0.25419168742229514,-0.23377867527464868,-0.5058910171936895,-0.31036338576554573,-0.5427504062374425,0.09914250229446443,-0.3435046842309381,0.24517993021600512,-0.28221907507398164,-0.4053821863810656,-0.24049404182790704,-0.1452922745925601,-0.11800569461757725,1
7.95,2.325,1.75,2.375,12.8,11.475,1.625,5.65,514.0,139.0,92.0,139.0,769.0,680.0,107.0,366.0,18.0,14.0,8.0,15.0,17.0,16.0,15.0,16.0,-0.47508705850613464,-0.39279684322057407,-0.12072426346642327,-0.1032396154739821,-0.4462935218845046,-0.4476404844385025,-0.12372329511764887,-0.24833051783159282,-0.29433253424402056,-0.1727991535756059,-0.27590022463986286,-0.44567282702378086,-0.16418643493438,0.045006036898284064,4.989740257276813e-05,-0.23515086649105044,-0.5862230320105417,-0.5991763889343615,-0.34375033726135695,-0.3114069018379803,-0.43384335710443656,-0.4622721440544701,-0.5271529008415142,-0.27881721939918513,-0.5816173851833971,-0.27190331447615274,-0.15855088687212995,0.021160798463421945,-0.4678604063290095,-0.020568898254276508,-0.3693108730590161,-0.3209494469614547,1
9.975,2.1,1.45,2.15,17.15,13.6,1.95,7.325,658.0,112.0,74.0,130.0,1041.0,770.0,119.0,497.0,23.0,14.0,10.0,15.0,21.0,16.0,15.0,21.0,-0.6365999220952209,-0.502430251914102,-0.33863556952730206,-0.3711819475503763,-0.22693074231982283,-0.3989990707912208,-0.2368785070801992,-0.2988179637484733,-0.21562934611656046,-0.04999975655227679,-0.07430060355366373,-0.09921864198709338,-0.3220702650816674,-0.14017481513446978,0.030943099933185256,0.037082895594623924,-0.5813407831064904,-0.42283393878570374,-0.29494026827614744,-0.14183992393435244,-0.22763309153515818,-0.4346067645450019,-0.37105863230054054,-0.3326513940374638,-0.510593485674047,-0.24890155576743492,-0.18944816586888166,-0.183328393403896,-0.6988312071798695,-0.2568992431286747,-0.21291672208645362,-0.22614268314833524,1
11.175,2.225,1.925,3.15,15.55,13.175,2.0,5.25,762.0,130.0,108.0,186.0,940.0,693.0,111.0,325.0,21.0,16.0,14.0,17.0,15.0,13.0,12.0,14.0,-0.5045638625212935,-0.2943174906513892,-0.2821182197551223,-0.2746582328880134,-0.37527101124664575,-0.3762502428596375,-0.24052169172961,-0.30488720627952987,-0.15945376986903012,0.26372213723133603,-0.0868103494477806,-0.6602063038915678,-0.3124396243247353,-0.04874198655735083,-0.20645763088774846,-0.4418082855328203,-0.2958666656993643,-0.29213116723321614,0.08607367250276612,-0.22350909537580732,0.0336387840054579,-0.42568386705011235,-0.034246323275793814,-0.21591855242189947,-0.12140993735473996,-0.19096065263374865,0.03662214878912894,-0.09215407251703658,-0.3794654138898606,-0.5064368707852761,-0.3105775728101412,-0.2784411956813858,1
8.7,2.35,2.175,2.4,17.475,16.6,2.475,5.725,529.0,144.0,114.0,149.0,1099.0,959.0,131.0,306.0,17.0,11.0,14.0,19.0,14.0,16.0,12.0,16.0,-0.15236918387727816,-0.14093120645065899,-0.1565221331202407,-0.09234082119539964,-0.17300487506095222,-0.04668788598670946,0.0772597765952681,-0.20760302401249708,-0.16786499168736924,0.031355270838496006,-0.031784481814531355,-0.26216046978000895,-0.4163581594845178,-0.05446609745924495,0.023206045282367166,-0.17817463583506143,-0.4204328896264456,-0.14259805512086174,-0.21993818928983122,-0.13746694074090365,-0.28226141787865894,-0.10036453800866509,-0.4068566000830443,-0.17414741858872998,-0.043684174569095464,-0.0012663480997041148,-0.4362719260021941,-0.05839492785522991,-0.13478486734221837,-0.17310166441530758,-0.13965261710796004,-0.35149816065919315,1
10.525,1.85,1.7,1.725,15.225,12.25,2.4,4.975,667.0,100.0,87.0,100.0,934.0,735.0,137.0,277.0,19.0,13.0,14.0,11.0,14.0,17.0,16.0,16.0,-0.372351979088649,-0.2356237090886477,-0.28212225332349805,-0.40428492172645,0.05057507241669855,-0.2094875589284419,-0.21251033846473757,-0.026290493883458825,-0.18712245904454333,-0.34195789579811575,-0.5210812372003311,0.015937538577209403,-0.3568114353661393,-0.2058920192006831,-0.20384246656642843,-0.18862607631602657,-0.5073113106474675,-0.37398251426824797,-0.348534446215604,-0.3563745373527478,-0.49289689618468574,-0.35829418934691376,-0.5058595413764411,-0.37446753281982165,-0.24612907014807964,0.02137458481461854,-0.13853726217142942,-0.27759027688750587,0.10697552597665183,0.017503877528278276,-0.2583080227710936,-0.17538009483868908,1
8.275,1.775,1.775,1.775,16.675,13.3,1.85,5.325,507.0,101.0,111.0,107.0,1075.0,805.0,101.0,328.0,15.0,13.0,14.0,13.0,19.0,16.0,10.0,17.0,-0.2563354842726415,-0.05590680710153185,-0.035673775065217204,-0.1963812794104178,-0.09094516389840367,0.15606019721261422,-0.09047550886744365,-0.22724570687440332,-0.37381899977341987,-0.04651239060416367,-0.22161570488926863,-0.03762077087469522,-0.24456391012908701,0.10491740254850439,0.01603076950379463,-0.17813908412689355,-0.5760369591121871,-0.5192931814036177,-0.3505577909594397,-0.3766093300750329,-0.3814506715592297,-0.40423685079057026,-0.39008327987121083,-0.22828828385590125,-0.03166289729004107,-0.11416781969921005,-0.056258460150706374,-0.12712124334400493,-0.1875451329058989,-0.35564948278303526,-0.10108325388536485,-0.33054712688046634,1
10.875,2.35,1.625,2.025,12.2,12.725,1.875,5.425,592.0,141.0,78.0,107.0,682.0,667.0,84.0,314.0,17.0,17.0,10.0,13.0,14.0,15.0,15.0,12.0,-0.18430159868875848,-0.18117328953338693,-0.07637405385950008,-0.08882132546631859,-0.11283880625726926,-0.248881511448451,-0.06730282379322278,-0.37495249054200586,-0.260364051122804,-0.5413306857446224,-0.3968586671649783,-0.3773030570155561,-0.12323650934241354,-0.36272082101231806,-0.4040401525494889,-0.036181446095059404,-0.38058342363541975,-0.4664840403489399,-0.3649752878722806,-0.2365057462004282,0.015227292828405037,-0.5224205185223767,-0.2774282821477865,-0.03640398360298541,-0.15722767798429216,-0.09948303197521065,-0.16537914631843206,-0.23011982854191865,-0.05919934876098712,-0.18855156180417568,-0.08635892737940076,-0.23822797601639298,1
11.975,2.225,1.8,2.4,14.2,19.1,2.15,7.025,780.0,165.0,109.0,122.0,972.0,1289.0,118.0,487.0,21.0,18.0,17.0,13.0,19.0,23.0,17.0,18.0,-0.5370253128999368,-0.17713341026079907,-0.13457879742486278,-0.12018949135170731,-0.7853144406194902,-0.7355370749724889,-0.22833858790127792,-0.2891801291228616,-0.43509773399605306,-0.5903575237256912,-0.05870211474693372,-0.33845890881063617,-0.058944003650227034,-0.45416144232572814,-0.22525605648962846,-0.15910383156875701,-0.6897223188383206,-0.3830270688272963,-0.20682924943113665,-0.12189483594967998,-0.6696593442310255,-0.6078871303847939,-0.17097438574625623,-0.28143809360769867,-0.24946671138948973,0.1740383250095376,-0.04132517060697212,-0.09780055900331257,-0.5315727444541789,-0.1998838218799924,-0.3414723150918502,-0.14965281098678487,1
11.2,2.05,1.825,2.75,20.675,17.175,2.175,5.7,668.0,109.0,95.0,129.0,1373.0,1060.0,127.0,361.0,18.0,11.0,12.0,13.0,20.0,17.0,14.0,14.0,-0.581274074020173,-0.39850414510744886,-0.4898669310220552,-0.28986234669230093,-0.05462138059979534,-0.14748385033010314,-0.2234631726725011,-0.39300288115694143,-0.1522031854549268,-0.09671513108254895,-0.32539715848437073,-0.36940682772546213,0.3215355490606129,-0.5223675361035651,0.08468071814966674,-0.2603404987952042,-0.4508398572112486,-0.1743116647585368,-0.1892046206656675,-0.27909003720164377,-0.3808775322698997,-0.24067102554880943,-0.2083854548142776,-0.33306236465398914,-0.2598619530963482,-0.07362727439953451,-0.1549163051768147,0.02360514560435212,-0.44237283369052055,-0.2500083403705463,-0.20053742258847793,-0.23522445841556378,1
11.85,2.75,2.025,2.15,14.875,14.05,1.95,5.3,752.0,158.0,108.0,137.0,1013.0,788.0,127.0,364.0,17.0,16.0,15.0,15.0,20.0,14.0,13.0,16.0,-0.46244442763366767,-0.38912149398477713,-0.20754917123891534,-0.2718916577067804,-0.3537918287602392,-0.34363855636636365,-0.28391507377813946,-0.3192532975164922,-0.12539724993818815,-0.029252778029682514,-0.1160878001629509,-0.049279775909912026,-0.4539984223862189,-0.17162596923069987,-0.10619965683861465,-0.0777256671679269,-0.39552904619456775,-0.08545031691720356,-0.07916297433007831,-0.29081365301993006,-0.42117748195527255,-0.5205074094367176,-0.2988984183354304,-0.43937345851425297,-0.3218006739800403,0.06792737057042375,0.0027153815499483995,-0.17066993492245933,-0.42750915843393805,-0.2570676404536961,0.01787476033039811,-0.11813686049666582,1
12.425,3.45,2.275,3.5,16.65,16.775,2.375,5.925,884.0,206.0,131.0,211.0,1088.0,953.0,145.0,441.0,17.0,14.0,12.0,14.0,18.0,15.0,19.0,19.0,-0.5100364368466783,-0.3638674557609607,-0.06961566197352123,-0.20813362034454708,-0.2704815969614266,-0.4613914019087895,-0.10003163725516086,-0.4092433848449665,-0.18809587584867776,-0.017001079066802552,0.0839449319312933,-0.08276842921332772,-0.3788801334593348,-0.37502503009310534,-0.1631311762437714,-0.32636030614810174,-0.6138036314877087,-0.4699882009791189,-0.11835891397501977,-0.05513353780089423,-0.2976930672543945,-0.3782485527171612,-0.3028374455785238,-0.29509539397234963,-0.22396805544960843,-0.19557452367813777,0.030299411025340495,-0.06153666780550045,-0.5056508150898587,-0.6282497790535787,-0.23521582102672547,-0.34972776526540716,1
10.8,3.125,2.0,2.725,14.95,15.85,2.275,5.975,707.0,187.0,127.0,150.0,967.0,933.0,127.0,385.0,17.0,11.0,14.0,12.0,16.0,18.0,10.0,16.0,-0.39747064114456215,-0.20215158334037592,0.031604963471364246,-0.11918811353605495,-0.3236486336304063,-0.5894008826020832,-0.07984092246085511,-0.395795836502183,-0.45168302562150536,-0.19331281331586977,-0.16401903926791322,-0.2333770568054348,-0.28861982747155124,-0.3176481699845093,-0.2854153910846133,0.003310597776096064,-0.5980274916764665,-0.5438875942280508,-0.31445359204996093,-0.1491756887081659,-0.5579670578885808,-0.6275217171666693,-0.4481211214620168,-0.34447273609824425,-0.24048662072524704,-0.3141500806965296,0.05937093793792992,0.01000192999116832,-0.4607429104436027,-0.4387673807615539,0.057077611836284056,-0.15672943689764354,1
9.475,2.275,2.225,2.75,14.0,12.85,2.125,6.825,664.0,136.0,122.0,157.0,788.0,688.0,128.0,411.0,19.0,15.0,11.0,15.0,13.0,14.0,15.0,18.0,-0.5399027626003262,-0.24166752260578686,-0.32157583128531625,-0.2268485485084444,-0.3402414032259151,-0.4884894087319933,-0.21943103993173793,-0.05156718224878474,-0.46822815668418877,-0.4242759847095753,-0.19255520926803843,0.015108834523478448,-0.4697794079856198,-0.2380813347010086,0.007006515468604977,0.010802496815998831,-0.08258644935723047,-0.3595698523039476,-0.10764363455303748,-0.10475270104012041,-0.24435602315704794,-0.46276653848637184,-0.4060090751401068,-0.18534283931910306,-0.400603723281938,-0.062411549957028176,-0.0774233187795883,-0.15158157979639944,-0.3180049249342339,-0.4852261549292846,-0.15092886495507668,-0.44071900217399124,1
8.15,1.9,1.725,2.3,14.9,12.325,1.95,5.125,541.0,125.0,91.0,122.0,813.0,769.0,106.0,325.0,18.0,14.0,11.0,12.0,17.0,17.0,11.0,12.0,-0.4529687350338298,-0.3005630475177576,-0.25023828538463483,0.023368233005323247,-0.45708201728795944,-0.24609138299531738,-0.13228685130844187,-0.33071279757906613,-0.25212376892863003,-0.32272579934455176,-0.3998755087153595,-0.21178786756496382,-0.29268256749252825,-0.20647592449193514,-0.4877946966293772,-0.12700226969462594,-0.19853040998672186,-0.3002827777846801,-0.2110426550953931,-0.23503284547915812,-0.48772949311171393,-0.3986956233714726,-0.4406558658144062,-0.3812112963977612,-0.03015151652100081,-0.07436349371885452,-0.3612487695997305,-0.10399606224989522,-0.5808660261499399,-0.4233506495730113,-0.42245930223181594,-0.2030315159192899,1
9.4,2.075,1.8,1.9,16.775,12.2,1.75,5.275,599.0,121.0,108.0,112.0,1031.0,789.0,100.0,329.0,17.0,15.0,17.0,15.0,23.0,19.0,12.0,18.0,-0.4532321649516348,-0.3571686094103069,-0.16234385066134482,-0.15481704841062913,-0.19599988183858,-0.48769226696254014,-0.22175806949190047,-0.25417707324919947,-0.3450295828208232,-0.18374298222228572,0.026981911697637865,-0.11487406481530942,-0.2455674896682217,-0.2987937090575462,-0.1299985744903528,-0.03853349546074728,-0.3502659243218229,-0.13163809114074593,0.07823513155144984,-0.3036443370823611,-0.5362343405858037,-0.3523064063133929,-0.07852844858062125,-0.003222981252559594,-0.23131142602670338,-0.23012167367563371,-0.11458553651090157,-0.36209825605005946,-0.4413978186347475,-0.27990047082354497,-0.22153411751210464,-0.34719267552533783,1
11.75,2.625,2.175,2.475,15.075,15.35,1.9,5.4,701.0,145.0,129.0,142.0,924.0,981.0,98.0,359.0,20.0,16.0,12.0,12.0,15.0,19.0,12.0,17.0,-0.3274927729835502,0.0010469773432197147,-0.21704236839393634,-0.3176456777893474,-0.05711834428496393,-0.16297768178503672,0.10621823907125959,-0.38838943623764105,-0.1591710321411231,-0.3084409543624159,0.10719747856464709,-0.3162830869127388,-0.07768232510261672,-0.20042846581579682,0.0013653622736578195,-0.15834203883389267,-0.32702125437204493,-0.4487608224117116,-0.15751940301946454,-0.4272217256697339,-0.4929049989366174,-0.3871005506015889,-0.4098962544804283,-0.3381666597142394,-0.08645742431164802,-0.3134285612262731,-0.1485360345045055,-0.06110740993306029,-0.4330762080369177,-0.2108723887129367,-0.20236341380654982,-0.41202650402952845,1
10.475,2.375,1.6,2.625,13.85,13.525,1.95,5.975,696.0,131.0,84.0,158.0,881.0,878.0,108.0,388.0,22.0,12.0,15.0,18.0,19.0,19.0,14.0,18.0,-0.5285020660491979,-0.4507513876539243,-0.12462017137496988,-0.26269396446581494,-0.1828006899024082,-0.2624199168272733,-0.14988520957814117,-0.2671845968305493,-0.05858913246750005,-0.2900729450355685,-0.14208763374524705,-0.27848924865347335,-0.4272604799272812,-0.28853257170546376,-0.2397472293509636,-0.2687876147764449,-0.4146017017067907,-0.2658847209013666,-0.12670632456915498,-0.1974931082678292,-0.6294111372706442,-0.49767072670562856,-0.5610187155562059,-0.33544395670794797,-0.14346851806501137,-0.39319966245803956,0.1591540876006441,-0.0169025056734512,-0.3723776292820232,-0.23287961002888657,-0.18503847422649494,-0.3825187307437896,1
9.35,2.525,2.125,2.45,13.9,14.95,2.075,5.9,593.0,140.0,106.0,127.0,921.0,764.0,111.0,405.0,15.0,15.0,9.0,6.0,16.0,14.0,11.0,21.0,-0.4726401862078341,-0.17846496009586152,-0.07435385817325016,-0.16682394362084485,-0.1858440205173351,-0.1993758182113855,-0.3248419675684768,-0.10217984667605216,-0.016504931903677505,-0.25806588947539394,0.02852059006501963,-0.21399306710832622,-0.07432182083210993,-0.10046029857668763,-0.04833569410286449,-0.13440130228387645,-0.40099944021776257,0.1550112075282227,-0.24323737897059963,-0.3858208743860023,-0.0945076480986035,-0.13467436865580085,-0.2876437843130052,-0.2862234305947255,0.005715427171193329,-0.2164505927513127,0.22094969152069194,-0.12172737803043132,-0.41713856808684957,-0.06849787625386582,-0.202799032511553,-0.32609901890352433,1
10.975,2.575,2.225,2.725,14.875,15.95,1.925,5.625,741.0,145.0,107.0,156.0,936.0,889.0,91.0,341.0,20.0,14.0,13.0,12.0,15.0,17.0,11.0,14.0,-0.4118223837067684,-0.07939144165851827,0.05449520001396466,0.21579869330979848,-0.21113417822851285,-0.2836358632943829,-0.3894444809651634,-0.18259533000163225,-0.09119992195311741,-0.28188005932347765,-0.33818909100708777,-0.14099678848720787,-0.2178925568829557,-0.17927081275848508,-0.17613922139289565,-0.25876240621642116,-0.3132931516517912,-0.15661518726790233,-0.13661066042031383,-0.020648540622103178,-0.3000814870749093,-0.23181478680907688,-0.4167080060172304,-0.2838103075158887,0.1700612657720908,0.14384694319083086,0.024128300256003966,-0.20251612268695468,-0.17133589113712164,-0.07418102361624612,-0.45969351884581233,0.013813412614646145,1
11.1,2.45,1.675,1.875,17.025,13.1,1.975,4.55,700.0,143.0,88.0,115.0,1074.0,721.0,92.0,279.0,20.0,12.0,10.0,10.0,18.0,14.0,10.0,19.0,-0.3251112117415766,-0.33364024290499233,-0.12385478514228912,-0.07344460863589564,-0.17583407389243255,-0.19680029697100154,-0.19639428718678018,-0.1303988479721613,-0.10049074220523053,0.13322206300978867,-0.3165376195343919,-0.35784411550011325,-0.25933416479131816,0.09125457893965641,-0.15227939090195133,-0.1252144524017094,-0.360438123189738,-0.17715936278661829,0.001967282547401306,-0.07826824462411779,-0.11890362676937202,-0.41340044588355146,-0.1556789025465533,-0.16349729036819546,0.10413290986208446,-0.30563594424088397,-0.1493694995640627,-0.14550294596030264,-0.1938371859741337,0.07585395620489982,-0.16901828970244012,-0.39964117652307485,1
8.925,2.35,2.2,2.45,15.175,11.2,2.325,3.6,546.0,142.0,102.0,153.0,1003.0,731.0,141.0,233.0,16.0,13.0,12.0,10.0,19.0,22.0,19.0,18.0,-0.39108406660303807,-0.48825956226961104,-0.14795645623681788,-0.2331553757716301,-0.4795925616235996,-0.5148047560947843,-0.33742475186166027,-0.5053104001545263,-0.04336299697645195,-0.19278324069334893,-0.07969225800916666,0.15920889120517095,-0.22476098682166012,-0.03692171755861732,0.15232818204700665,0.17738694573090463,-0.4037080961045357,-0.026981270976455248,0.18911789039868623,0.1923681151697391,-0.4451190487551794,-0.3743414980791434,-0.1387819182722131,-0.22384536214002004,-0.4318833142604454,-0.32171482758003095,-0.1960533948734074,-0.05118115604596974,-0.26085536799433906,0.053544605079764204,-0.05123846508169631,8.899023647271789e-05,1
8.75,2.625,1.85,2.5,17.125,13.975,1.925,6.25,550.0,164.0,98.0,153.0,1151.0,911.0,127.0,420.0,16.0,15.0,14.0,14.0,19.0,18.0,12.0,20.0,-0.3557004829066105,-0.2652457834684778,-0.07168959367922714,-0.04896302834145622,-0.41526462345161425,-0.39214327836012025,-0.3878928600669714,-0.2477959193381736,-0.36240130824492106,-0.3631233570777457,-0.32512298634487413,0.09289880466666246,-0.29921783944196473,-0.018158781829240137,-0.21888788727144734,-0.28143586865517267,-0.7624927049432911,-0.4311264656804774,-0.148818589313792,-0.04097012610755461,-0.819746308851327,-0.8552580909232163,-0.5481047209374849,-0.286793093842564,-0.2720484924848676,-0.19748263884754078,-0.04626064263469751,-0.13640209109282428,-0.4754545287302414,-0.1253493686022553,-0.1783615341846698,-0.29395208003479945,1
10.125,2.225,2.175,3.05,16.025,17.175,2.075,6.0,660.0,110.0,122.0,163.0,1060.0,1115.0,104.0,351.0,19.0,13.0,16.0,14.0,19.0,17.0,11.0,14.0,-0.37169365282792044,-0.20711029572430373,-0.23955465379161478,-0.03722759329975777,0.05955661038717344,-0.0985839085234296,-0.2831410944688243,0.017846832004746276,-0.26099679665512665,-0.09941838551549143,-0.173650731082561,-0.09054397504998381,-0.042031954457479516,0.06784345555182662,-0.3694253551302048,-0.0031617906671721706,-0.5347427319955248,-0.43638118728611297,-0.2548093157898209,-0.34558386833799626,-0.6915893338387616,-0.7504292550100137,-0.5107335227458841,-0.4696841241845511,-0.019559005260587087,-0.32646157657034575,-0.08347508038958464,-0.1039906714265553,-0.3589454404511162,-0.5139732986082226,-0.2094663105090933,-0.23136598023164248,1
9.525,2.125,1.85,1.875,15.575,17.875,1.675,4.575,587.0,117.0,104.0,96.0,1052.0,1165.0,76.0,293.0,15.0,15.0,12.0,12.0,17.0,17.0,6.0,15.0,-0.567785024725375,-0.5399123182163214,-0.6054081124696711,-0.41059482892005555,-0.003810022597654617,-0.3560100846457931,-0.18405542888172008,-0.03510341508850707,-0.051821267081028785,-0.27800510932869316,-0.057208097821761,-0.17165934152511997,0.05560021067603595,-0.1798686932582632,-0.24709935310601638,-0.08439718095290692,-0.5635916972205688,-0.4207516661759931,-0.21963535894981284,-0.3079855048033694,-0.42117377105163445,-0.38761240434774846,-0.3378800048819655,-0.30056268784094614,0.13738599676795776,0.2267527352255636,0.02090028815818904,-0.24819503652506283,-0.3708855878673071,-0.11106694461549353,0.13266132979838224,-0.14428486513919944,1
10.3,1.95,1.8,1.825,16.025,17.65,2.025,4.35,718.0,107.0,95.0,100.0,999.0,1075.0,99.0,263.0,20.0,13.0,13.0,13.0,17.0,19.0,14.0,15.0,-0.49316177924965815,-0.34568886632358664,-0.30113644971069026,-0.21470168671193396,-0.1067807149305804,-0.34484097214130427,-0.25885402392943196,-0.3065288305178888,-0.27648302718635587,-0.4043340210933811,-0.37669174571075253,-0.22584441273663444,-0.25018337878305397,-0.6037492587164255,-0.26498237646566875,-0.4778412152266545,-0.38854433732458626,-0.21741675471112715,-0.25076929067020765,-0.1791801230624032,-0.5035909259581114,-0.5319936928492872,-0.5160668775927619,-0.47282446028593256,-0.05249914285608555,-0.20198207774359805,0.14489841642063137,-0.19871821264335207,-0.3194047544364042,-0.2832833615729076,-0.26177086776017827,-0.11532813166059008,1
9.075,1.925,2.125,2.55,16.775,17.425,1.8,4.975,599.0,106.0,125.0,142.0,1076.0,1091.0,113.0,340.0,18.0,11.0,12.0,13.0,15.0,16.0,8.0,19.0,-0.5171987691257198,-0.3749500147011123,-0.20835348769075912,-0.20658496456337275,-0.19942372618001664,-0.29568386103674604,0.15390216817696836,0.06990861245041409,-0.3156650711872533,-0.3386795248693951,-0.2460698971011541,-0.3305837996884831,-0.23245052365193006,-0.35219958269143514,0.07949510257220865,-0.19728496202124204,-0.5455452322040278,-0.4357630648674696,-0.3971997896161117,-0.4059689166737859,-0.41016627058337407,-0.5099393469346519,-0.2883393707791936,-0.5031329476098879,-0.18097654701352392,0.1658370378520464,0.3310918357571124,-0.05289035765413815,-0.29212185658692313,0.09908525738344091,0.1819623387515717,-0.05968500530668235,1
11.125,2.375,2.075,2.65,14.6,10.625,1.875,5.875,755.0,126.0,118.0,146.0,925.0,598.0,112.0,407.0,20.0,12.0,12.0,12.0,17.0,18.0,14.0,16.0,-0.47682714122178527,-0.400082155832615,-0.20493953740326404,-0.3190518504673002,-0.27741299346757614,-0.0991010411292162,-0.396201599665005,-0.24514924160671783,-0.21812257746082506,-0.2238982355923424,-0.28412470918327265,-0.12185901674585975,-0.2614271383470748,-0.3315128256546557,-0.2245590313480762,-0.17359853335139164,-0.273101946140003,-0.044845066164200795,-0.10748482726085923,0.07682109444917135,-0.07014366181616156,-0.19449832819813617,-0.22381348824917505,-0.2432262763625063,-0.21727069118501413,0.26279325298289896,0.012760130245342604,-0.12932530673086062,-0.3525942359348497,-0.17480928942603205,-0.007367003165721511,-0.35324374565083705,1
11.325,2.075,1.775,2.25,12.725,12.55,1.55,6.05,721.0,137.0,109.0,128.0,746.0,775.0,98.0,386.0,16.0,22.0,15.0,8.0,16.0,16.0,11.0,18.0,-0.41655419633131285,-0.3019376144493064,-0.3325452187715464,-0.1365531672884472,-0.5280007061442807,-0.0603458172370012,-0.18268981903873152,-0.2799253660927777,-0.390193516588216,-0.5095317863993648,-0.20563250214828924,-0.11619930863609589,-0.3324934997195148,-0.35222836346573067,-0.12675275805505673,-0.16895830740045906,-0.3987243606818361,-0.18997710828921321,-0.3691167225264201,-0.11093660188405334,-0.08039734857773323,-0.17102481448339996,-0.4679837492563705,-0.06653719423915211,-0.21388723775774554,0.048456295068281516,-0.3612829047670391,-0.12125994544049223,-0.4254405956505741,-0.33825628414409886,-0.13231143391014288,-0.41405749347425375,1
10.85,2.025,1.8,2.75,16.625,13.625,1.5,5.8,563.0,112.0,92.0,143.0,1021.0,676.0,64.0,329.0,15.0,9.0,11.0,15.0,20.0,14.0,5.0,15.0,-0.20892423144774344,-0.35855923377078375,-0.21692628361894997,-0.007771131365325758,-0.03609326565856999,-0.18832092502245032,-0.11599482850329744,-0.38850654559294534,0.034429140578649355,-0.42415506429096045,0.024282134490831237,-0.4594362459340029,-0.05528567666716997,-0.29365373146495394,-0.03231165314271015,-0.2652811867018853,-0.48235425927004255,-0.32644491694257505,-0.4111709705844425,-0.283277815090286,0.17167194160509378,-0.3882679822988443,-0.06608210459112035,-0.22321010551907444,0.2221889858296803,-0.07106428016288939,-0.3118573020559448,-0.21728351619755576,-0.1264710431718146,0.02786767357430828,-0.19413591662014273,-0.3366588269563108,1
10.9,2.675,1.475,1.975,11.075,11.575,2.175,4.875,697.0,133.0,73.0,126.0,690.0,547.0,120.0,300.0,19.0,13.0,7.0,20.0,17.0,13.0,11.0,17.0,-0.398015639974003,-0.1312244475448651,-0.37261827774859907,-0.22134285800448522,-0.13530232185750618,-0.046003454990244344,-0.2633329079801398,-0.23586635604861794,0.10554011702630565,-0.4256459868465972,0.047310677731248384,-0.0710509784911009,-0.14593163693154076,-0.0037652281391086367,0.04565998324819536,-0.10537364434954014,-0.21056929091766258,-0.22012942316786108,-0.07567137354176216,0.006860428966403509,0.19519784741206314,-0.35977806390781497,0.09103160504197125,-0.16154338521180076,-0.28905118931212115,-0.06194809667752006,-0.2839113774112481,-0.21582531016108142,-0.20661094772776772,0.03546949123553431,-0.09443265131868162,-0.2151001412739448,1
10.05,2.8,1.625,2.25,16.7,16.725,2.175,4.15,581.0,152.0,82.0,128.0,1100.0,1046.0,126.0,270.0,17.0,15.0,11.0,12.0,18.0,17.0,13.0,16.0,-0.31994687708953545,-0.33176218072054925,-0.21718210005020874,-0.3319068757434512,-0.12992788039527922,-0.45905755349726624,-0.15157003825814158,-0.25235906732037855,-0.012232069242440522,-0.012412111128997231,-0.09274920449024589,-0.19475219737907076,-0.3278504809527284,-0.18490975343427615,-0.08100153937391542,-0.2616916646617132,-0.4970988163308216,-0.3597599338865244,-0.3334210808319456,-0.4439264678868473,-0.651802559830532,-0.5625821161656195,-0.49667606571656514,-0.41818471254931666,-0.31675258432980424,-0.329356620390427,-0.2400812946231472,-0.34541000590889215,-0.4077195529665908,-0.20685782073749573,-0.38267056069831207,-0.1924756210240063,1
9.625,2.475,1.825,2.375,13.95,11.925,1.75,5.0,632.0,155.0,105.0,144.0,859.0,753.0,113.0,355.0,19.0,15.0,10.0,10.0,15.0,19.0,13.0,21.0,-0.45186380631916945,-0.24813028255561687,-0.18917240213781303,-0.2863773239460782,-0.4163274959829944,-0.2488956913438873,-0.2818046923713415,-0.11432024973745257,-0.117324552932595,0.002211735801580026,-0.15091000275480787,0.06597167721563806,-0.234842086987006,-0.22758927437142334,-0.2226536341575375,-0.17373633170817704,-0.15264454187346355,-0.06505954845064267,-0.03612165464253199,-0.26375829210121915,-0.4886845618667749,-0.45156561913536813,-0.4520190633375382,-0.18472023604308502,-0.24952164632819296,-0.2247565927211055,-0.14948989972191634,-0.13134173273306035,-0.6636461942693999,-0.38300284596928935,-0.27726841864542295,-0.43422537179800397,1
9.675,3.125,2.025,2.7,13.6,14.725,1.975,5.975,613.0,165.0,101.0,128.0,742.0,880.0,121.0,362.0,17.0,9.0,8.0,12.0,12.0,19.0,11.0,13.0,-0.3388417302010669,-0.3065222500977485,-0.1871579391074856,-0.3011141081210638,-0.07037127381404489,-0.03962753757819225,-0.40597420370961884,-0.1812621463765927,0.13939185268552062,0.08321269342748783,-0.35216036097167597,-0.125823153188675,0.0030294976321150373,-0.08887911708639328,-0.15500014371533732,-0.2401339482244467,-0.00795213019494002,-0.5362054387769899,-0.11222977015661319,-0.3603162921657807,-0.30899194187879353,-0.21495052308230833,-0.3598183900087874,-0.28555045621587993,-0.2310788854496538,-0.0094649966306897,0.023936390942863175,-0.17702334826011942,-0.148577834625404,-0.07178873091271873,-0.07481278058484761,-0.4542105696637472,1
8.75,2.675,2.025,2.05,10.875,9.65,2.025,4.775,527.0,129.0,98.0,105.0,687.0,546.0,103.0,253.0,18.0,12.0,13.0,11.0,17.0,13.0,12.0,15.0,-0.27693391143545804,-0.1769467006299075,-0.11691487561200535,-0.2557523672001751,-0.04517181139709214,-0.32123087002565387,-0.16448551133055217,-0.1125369057624917,0.04418094667369912,-0.02217545073471048,-0.244121551999887,0.1451773782983227,-0.010658918548158968,-0.13203543556365957,-0.12257635298620313,-0.2393842379934809,-0.4336432700917485,-0.2363007372360348,-0.26005148824918467,0.17451028361899973,-0.10109089781772927,-0.46525192236150875,0.050673408321828095,-0.08241038918074138,0.08087235587745405,-0.04391498970180559,-0.08058900667449373,-0.17164101032928242,-0.0892455044904613,-0.2947199009932263,-0.09572157585064024,-0.19106640806368935,1
16.025,3.375,1.8,2.45,12.775,11.35,1.8,4.8,987.0,175.0,119.0,156.0,811.0,744.0,96.0,282.0,16.0,15.0,14.0,20.0,17.0,20.0,18.0,19.0,-0.23381581684766348,-0.14268007602200153,-0.24124285301422668,-0.27579306599681325,-0.1140313082912454,-0.2445095959676906,-0.2107278182560364,-0.3358113121373788,-0.5104831112784218,-0.1590031520675404,-0.20788502425745756,-0.28832984654029264,-0.598319633614964,-0.49032112540182393,-0.33486349945277744,-0.442792555098238,-0.554311242927352,-0.3659079076149586,-0.1911624079288227,0.04357739694218068,-0.6764901762943096,-0.3739765001100648,-0.08609609123830872,-0.06630552092160381,-0.2516030822485021,-0.2043069883741401,0.018881631156120918,-0.02717291379856696,-0.10209020328583257,-0.1828275355577635,-0.03895082616931508,-0.3891615966329893,1
13.075,2.475,1.875,2.825,16.175,14.6,1.85,5.5,800.0,143.0,89.0,154.0,1105.0,909.0,104.0,298.0,15.0,17.0,10.0,15.0,20.0,17.0,12.0,13.0,-0.29516545361851204,-0.31261673400878315,-0.12149228207326844,-0.4048587369675001,-0.259075708960293,-0.31434737572578686,-0.17566448756748299,-0.33946002158820604,-0.19491225823340558,-0.40470005948014937,-0.2321292384333717,-0.2131595492297032,-0.2841136013603336,-0.6253712478094915,-0.1551350689790181,-0.3319552154250268,-0.4778619992983013,-0.18617514739065139,0.008671585150867904,-0.022532200511501097,-0.48284915548153406,-0.38211720341483296,0.03686213313873722,-0.19451450191893696,-0.18535020760740145,-0.2002976008520066,-0.11337466827710872,-0.03334410713139198,-0.2807683729052611,-0.49939292110697003,-0.4015036863839714,-0.3058451408890551,1
9.725,2.675,1.95,2.175,14.375,12.25,2.35,5.25,585.0,156.0,99.0,136.0,872.0,633.0,143.0,327.0,17.0,15.0,12.0,14.0,17.0,15.0,15.0,18.0,-0.2402108425528307,-0.3290794895869698,-0.2994036650906936,-0.25883156512670136,-0.1598219568444602,-0.4516729192376133,-0.05979451457363573,-0.5325062473551615,-0.3579113947791218,-0.33696806104330346,-0.1324657723632747,-0.2505289762391545,-0.4398881242488853,-0.5429464980845059,-0.32388662908820676,-0.23123563469596498,-0.3050032346950935,-0.24889033537705554,-0.20129784270164325,-0.23486176029941316,-0.16648744880524657,-0.2205662169676516,-0.24209760678257797,-0.2511995797286501,-0.3800277173705754,0.1524443290203884,0.20692829331621426,-0.12747456950046346,-0.4186594421530327,-0.15621954973033733,-0.30549634312048435,-0.49973027977909334,1
10.95,3.05,2.6,3.575,15.5,16.775,2.625,4.875,630.0,158.0,147.0,211.0,928.0,1041.0,161.0,292.0,12.0,12.0,10.0,13.0,15.0,16.0,13.0,13.0,-0.18383034696376002,-0.2308863657995874,-0.26994919102702675,-0.4013497711883934,0.005973615363713309,-0.12222686048352245,-0.2571966871859535,-0.3465226385527886,-0.3065789140811124,-0.06711924072699797,-0.11455669244350677,-0.3043040413392087,-0.24657754140684499,-0.11163667285622252,0.012495694324376517,-0.38875450102142695,-0.5322195426282418,-0.6125335949910441,-0.5385542874765519,-0.3567331846082961,-0.3765839405608714,-0.24067568938977116,-0.37466832620360746,-0.3558424013516236,-0.27249745567355954,0.03350742673902156,-0.18650705590100752,-0.3097500953219591,-0.15546037106799812,-0.23663839947844412,-0.2211066172738779,-0.19421530061006104,1
10.525,2.525,1.975,2.7,14.45,15.7,2.225,5.025,596.0,143.0,108.0,158.0,862.0,974.0,130.0,327.0,15.0,14.0,11.0,16.0,14.0,15.0,14.0,17.0,-0.2182227223793153,-0.35467268237264576,-0.2658177478957215,-0.5196096804383774,-0.17160273357370884,-0.015443149884210142,-0.34804774126592875,-0.35988924167891123,-0.24106369252706597,-0.05958352767562047,-0.17452078878029006,-0.15181798343630076,-0.3188711765616781,-0.28958590440840576,-0.3053418329714186,-0.10935967632324199,-0.18823406079243396,-0.0816064162120922,-0.0804004064604205,-0.03748604432214304,-0.3349594578788202,-0.03451578223182986,-0.19704978928893735,-0.2881547682191238,-0.3392290525707359,-0.06655874408930454,-0.15318636566657048,-0.08387773069367499,-0.2662619617050583,-0.2299507267301022,-0.14664633594196091,-0.225033692816168,1
10.125,2.05,1.75,2.575,18.075,17.8,2.4,4.425,660.0,125.0,102.0,160.0,1129.0,982.0,136.0,287.0,17.0,11.0,15.0,18.0,20.0,16.0,14.0,13.0,-0.5813398689697153,-0.4268543573766366,-0.10082147244940273,0.07382297524693322,-0.39583706981601374,-0.2655418151610522,-0.34568257640570504,-0.20423805926756464,-0.2803340203852225,-0.2506577574873715,-0.30589110602103775,-0.16963135018759087,-0.41805028408089195,-0.4098263101698035,-0.3220401814026322,-0.23071578667417095,-0.43515878396917024,-0.2754833588006185,-0.18327727568668242,-0.27870503401747526,-0.3620728479547459,-0.3622188935475038,-0.33045008318361446,-0.2470794324682348,-0.3959600004901089,-0.2603544186771548,-0.1949095899502415,-0.29902988241587714,-0.36152138981992976,-0.2161251739455778,0.07531737500201145,-0.1504124079088915,1
8.9,1.9,1.7,1.85,14.6,12.825,1.8,5.275,600.0,118.0,80.0,110.0,970.0,736.0,87.0,309.0,17.0,15.0,11.0,14.0,19.0,20.0,12.0,17.0,-0.6497956785166994,-0.6267163391431477,-0.015261414275470103,-0.026723075974929497,-0.3776887054943081,-0.6142976493988429,-0.16776250884523156,-0.4180415025486825,0.022168249470428333,-0.26181795680073,-0.1547200629767407,-0.24039702162488383,-0.29697223667225,-0.232887905748353,-0.3620018462086378,-0.21545530018733475,-0.59472289661659,-0.5411835620038086,-0.4394518302343365,-0.4575239982177938,-0.42617857583410423,-0.3435357733649111,-0.5563187673667662,-0.3248485513738896,0.08012188981621964,-0.5151067565075428,0.05008718136282078,-0.17665682793264806,-0.0917008524631125,-0.31372614396526594,0.12318652171636461,-0.28200813706301214,1
7.175,2.275,1.95,2.875,14.675,14.625,1.75,4.8,404.0,93.0,82.0,176.0,920.0,822.0,80.0,284.0,12.0,6.0,9.0,14.0,18.0,16.0,10.0,15.0,0.026867767842846717,-0.31785364249165754,-0.06959355093623018,-0.22811724831859995,0.2993877436644927,-0.11461901123225977,0.0054274293647366975,-0.22113733380351644,0.037832388058471535,-0.16576688894715708,-0.2198870141293018,-0.2646137676483965,-0.43046607832954376,-0.37295247921699354,-0.49222555950157754,-0.15146032647567595,-0.13653324421358573,-0.054820636725655986,0.056125029165341504,-0.3423213071451825,-0.10912135028042864,-0.12158513258236482,-0.40921289212686995,-0.03407622830586191,0.1829424460558299,-0.33011205932720744,-0.13762941539725046,0.002586768681752911,-0.43187700964430925,-0.45441177115238995,-0.2820100574307143,-0.1644904091853167,1
10.575,2.7,2.35,2.95,14.75,12.875,1.675,4.15,618.0,131.0,108.0,159.0,857.0,736.0,98.0,251.0,17.0,9.0,11.0,9.0,17.0,18.0,11.0,17.0,-0.2743259211062742,-0.23007056896010872,0.04107286861212602,0.03339710954235036,-0.0594355428505594,0.0004802098838795262,0.009845336305828898,-0.1788143130466892,-0.047328495606530484,-0.19834946385307717,0.06313559581345814,-0.22930388499113658,-0.22555624879669875,-0.16442073489689837,-0.05292214926195287,-0.2527723922761261,-0.11499115250617381,-0.2728603000546177,-0.09356619205651638,-0.25558718346262677,-0.17775976517823278,0.0015166041351596835,-0.2863960065866996,-0.2664384955964314,-0.4092317474580025,-0.23241553330240566,-0.40674786902012244,-0.5429229423068167,-0.3448324311311949,-0.07359959856893222,-0.06412183157194579,-0.2690035522046572,1
13.6,2.8,2.225,2.5,14.95,15.725,2.275,6.55,876.0,161.0,138.0,144.0,931.0,961.0,135.0,357.0,15.0,15.0,18.0,13.0,20.0,18.0,17.0,15.0,-0.4022736782224672,-0.23940421438848017,-0.22150670693295016,-0.14200821235679997,-0.25385872437780016,-0.3301711797498053,-0.3003542703673842,-0.16732377373171847,-0.223239543340235,-0.1885914972266276,-0.09323737198099674,-0.15983302892755258,-0.21607167799084862,-0.0032770011032006983,-0.011921353879048057,-0.18639439125460383,-0.32571463617510515,-0.28920088300422364,-0.1275627668384031,-0.3222599009995457,0.014109167711452038,-0.25262651978676226,0.12035697462100703,-0.49532564923352046,-0.21811859505910144,-0.27889145769702917,-0.14959677719628306,-0.29327961871478925,-0.06310987716622936,-0.2960228780227309,-0.029164145857580568,-0.25359514534940997,1
10.325,2.125,1.8,2.5,11.8,13.5,2.375,6.95,526.0,117.0,97.0,143.0,647.0,694.0,152.0,434.0,14.0,12.0,15.0,14.0,13.0,13.0,14.0,18.0,-0.014232777684058446,-0.4222209431106268,-0.10542419599652077,-0.1492452894188794,0.01988300568246008,-0.47446521237569717,-0.12289891599664551,-0.33825041198400085,-0.27383868798946714,-0.5170572544094502,-0.1581468446729796,-0.41606613866026343,-0.2596209229653308,-0.5536960099353558,0.07564153532668293,-0.23164615557531343,-0.27619262837665615,-0.2901308798564252,-0.37628478350537664,-0.43275594920080557,-0.10437910569291288,-0.549402336614809,-0.2558321504059649,-0.3674522389117056,-0.21848234675041622,-0.13259671792965194,-0.2513368537890618,0.009832541941870786,-0.2483690089616256,0.015475762209623154,0.09273495976055131,-0.09336651497576645,1
10.075,2.425,1.825,2.675,12.9,13.875,2.25,5.725,602.0,138.0,97.0,155.0,864.0,861.0,143.0,397.0,15.0,15.0,12.0,14.0,20.0,18.0,15.0,19.0,-0.33303669794870544,-0.27909782389462273,-0.22384497252167934,-0.2501020309875098,-0.04172935255371909,-0.38038485826091795,-0.12473363446118695,-0.4359454498640792,-0.24732469306112073,-0.28330025479799464,0.049912818594686666,-0.15004852402776592,-0.46934447059577006,-0.48702356779735934,-0.1678632089518308,-0.29547864885580727,-0.48531847834525715,-0.4141932178942223,-0.3113563216147043,-0.32152702195668303,-0.657143377511993,-0.5866593648016677,-0.21376119640886793,-0.23049168322835897,-0.37657455485303987,-0.04330230427399235,-0.2013141835225978,-0.23369410463097554,-0.5974959035483569,-0.2725840750744543,-0.3019331073201248,-0.29307690587428786,1
12.6,2.575,1.675,1.95,12.775,13.75,2.25,5.575,797.0,138.0,77.0,105.0,834.0,905.0,141.0,316.0,15.0,15.0,10.0,12.0,16.0,21.0,13.0,11.0,-0.3127036196592091,-0.24904020543606933,-0.2853363025805264,-0.24996465305409077,-0.288772557299233,-0.2947309563403812,-0.35412328844093616,-0.32806284642204414,0.02830932265358622,-0.18065995528998335,-0.10444715469007049,-0.24701508386360096,-0.15846079665001453,-0.04895639460575978,-0.18674281992261155,0.006907000464793757,-0.4521401594411297,-0.5314677920567731,-0.2930964958122557,-0.2878061647397082,-0.613170544455023,-0.2526854244609711,-0.32788334992836976,-0.2538588865293614,-0.39250652649853235,0.020453305092471334,0.31220152294673387,0.011126635676100734,-0.07831990881289341,-0.29909991556816656,-0.17883177339309692,-0.21840671253298932,1
15.825,2.325,1.65,2.05,13.825,12.35,2.275,6.6,890.0,119.0,76.0,120.0,871.0,832.0,151.0,373.0,17.0,12.0,11.0,14.0,18.0,19.0,20.0,13.0,-0.46934735372122555,-0.520945567798935,-0.5240432388763192,-0.41090591662278897,-0.21285811541720281,-0.6170373774423684,-0.3879518624427471,-0.3197279229644792,-0.0033931379843350506,-0.21983447983865814,-0.3281978537632429,-0.08364172326643246,-0.11017449088383233,-0.09229602312557739,-0.04780108414317469,-0.1915274012520837,-0.42980914532253817,-0.25358538134271347,-0.43507605839181096,-0.2884029738548665,-0.5734340567883299,-0.3995354917708074,-0.3766108629893728,-0.37824626764367253,-0.3929294480690856,-0.1187026034468911,0.1741856399778523,-0.09747003230959354,-0.1267709453057754,-0.3005601904707641,-0.0896836549549952,-0.24333793836751116,1
10.4,2.2,1.575,2.425,13.2,10.6,1.975,5.125,553.0,134.0,74.0,158.0,786.0,609.0,117.0,296.0,14.0,14.0,9.0,15.0,14.0,14.0,16.0,16.0,-0.0597834549315381,-0.19029589821916104,-0.30696320398576477,-0.0954544239129226,-0.31805176387904355,-0.21720052695453987,-0.0990705447730687,-0.2302340660122591,0.12644097231428053,-0.153217618256463,-0.022653556575627853,0.17536763043085674,-0.21523987827880228,-0.1976859496947418,-0.0371038663394634,-0.16026997380137148,-0.4171096279756276,-0.2324650136802842,-0.2623104730507795,-0.11621557813203802,-0.41139143374258225,-0.6514283303893089,-0.4140645767640838,-0.6266977552602186,-0.15413353805273894,-0.32201170456195777,0.053470734106193935,-0.12285361968492654,-0.09789724661527013,-0.1013943023521081,-0.10704028419614244,-0.22276955740592116,1
11.55,2.35,1.475,2.675,14.075,11.825,1.7,4.25,714.0,120.0,77.0,154.0,841.0,636.0,91.0,254.0,18.0,13.0,12.0,13.0,17.0,14.0,12.0,14.0,-0.39000588923110324,-0.24199713674707818,-0.5229063710837909,-0.24426965776667361,-0.13379269901199498,-0.278205368261732,-0.22148381750008128,-0.1929610124202379,0.03446044846234647,-0.3873910742031433,0.02838138249856929,-0.045767312600755776,-0.22891926184181952,-0.08890915523013102,-0.1256934520366963,-0.10840626963330147,-0.39740677390292756,-0.2109918787515872,0.003047716224129323,0.020799382816910274,-0.07424757752880232,-0.3241182510343627,-0.10170565597069124,-0.08594188837648817,-0.11730384793452514,-0.008533578862527456,-0.07382669979726748,-0.18724458326398466,-0.11047696057563881,-0.017530777798661183,-0.05213529808135071,-0.29542468788266135,1
10.05,1.7,1.75,2.15,15.8,16.075,1.925,4.025,741.0,84.0,104.0,121.0,1043.0,981.0,119.0,219.0,16.0,10.0,12.0,10.0,18.0,20.0,16.0,11.0,-0.46182186430924654,-0.06104587253348347,-0.07893932455034236,-0.22843373780896914,-0.0011892324846598291,0.005959589256011496,0.02971389904872796,-0.3531250451983466,-0.19234584784274664,0.023071328721163267,-0.17618372349412864,-0.13886573525188903,-0.2759804902532686,-0.21623353039413593,-0.2486336404658661,-0.030967122573568883,-0.4032104334143205,-0.292123962735232,-0.21154642168344057,-0.03915553280834231,-0.26945292024462203,-0.4060176293259344,-0.11686418625546938,-0.368943989694987,-0.382169977533982,-0.03931675477216851,-0.15084667431862334,-0.31239192267631705,-0.07968924398795975,-0.21891572608112667,-0.12096183210457241,-0.1357237770363257,1
12.175,2.025,1.725,2.25,16.825,12.575,2.3,5.45,820.0,97.0,96.0,125.0,1054.0,658.0,144.0,241.0,19.0,10.0,11.0,16.0,19.0,14.0,13.0,10.0,-0.5030892000297067,-0.04055666490708139,0.17172669190164944,-0.019392240298946033,0.007597036877765224,-0.05666867493505536,-0.22985977208851752,-0.24060157961396925,-0.05369068947695268,-0.024274392828817635,-0.30068365898166305,-0.313172167336991,-0.03586393649217804,-0.23228221505385416,-0.21052794505477077,-0.34195261652906656,-0.39164006649005834,-0.46780792462633264,-0.11428878800590427,-0.25239936783996064,-0.0318872257947405,-0.3003046706085158,-0.1986014892885884,0.07759930167739124,-0.4694543013591074,-0.15364518054840365,-0.34570202110803083,-0.13837718438941676,0.13901953759174407,-0.5513573823536498,0.02818247239684103,-0.3113006394539705,1
13.0,1.725,1.7,2.375,14.925,9.725,2.45,5.775,885.0,108.0,95.0,145.0,968.0,546.0,158.0,329.0,18.0,11.0,12.0,17.0,19.0,19.0,14.0,14.0,-0.44781888837809203,-0.20897817878328254,-0.30013189598228374,-0.19945275750437977,-0.2943107957224111,-0.28124674036595076,-0.18492893472076405,-0.2828660900798649,-0.3436377617222509,-0.3139501723811099,-0.4123137018442832,-0.40561707393705526,-0.4258141432098909,-0.38218238176300684,-0.18808994572627596,-0.43414716307576834,-0.5138510035012173,-0.41320473727898543,-0.08847244707201402,-0.3188106343023955,-0.3027271465755609,-0.2767839178505652,-0.47153338337953565,-0.28847708866746224,-0.35220920736320993,-0.25086206860307386,-0.33232620226977566,-0.2341289291416517,-0.17326371778176106,-0.18272994743719392,-0.236788029185463,-0.17506582777009944,1
11.5,1.725,2.1,2.9,13.65,15.625,2.175,6.4,718.0,107.0,119.0,154.0,848.0,1042.0,131.0,379.0,13.0,8.0,11.0,13.0,19.0,19.0,14.0,12.0,-0.4384649869854544,-0.25188120483408644,-0.20147275179551302,-0.10596328406035274,-0.22956008420344368,-0.2755830239460419,-0.06800437909841218,-0.18902415648275353,-0.22931003899602603,-0.23502103199347008,-0.3718195393116908,-0.058523307737708447,-0.3760272002812506,-0.32991441523665216,-0.4367244392363206,-0.3134895728336695,-0.45107035029380116,-0.3889610075433627,-0.14317976476601674,-0.2331459434215359,-0.4396507365709687,-0.17420853351217724,-0.25645934047922236,-0.2620396248482228,-0.22284039779566464,-0.19664664523469158,-0.14161584412893,-0.013122351756312071,-0.29853299554168783,-0.2111230463236504,-0.29637051378482693,-0.24140102200314031,1
11.025,2.35,2.3,3.2,16.725,19.85,2.6,6.175,689.0,119.0,135.0,190.0,1048.0,1213.0,130.0,358.0,20.0,11.0,9.0,12.0,17.0,15.0,12.0,15.0,-0.23514645201119938,-0.35327985445153637,-0.0659413432053917,-0.2489002684791964,0.011510621440975487,-0.3089336924380035,-0.12620661161760663,-0.3067746998674697,-0.5168195003708408,-0.36023594841447254,-0.35169162468656606,-0.29408039110137596,-0.43314495940027414,-0.20753996204674688,-0.3644756780218984,-0.35770228481882804,-0.6247908763347568,-0.48428588474609136,-0.24624477255537228,-0.1272135919472954,-0.38328181808931805,-0.31720137392568976,-0.23422523997219247,-0.24754298702468658,-0.2971873750591994,-0.15369779089484237,-0.5540131023894664,-0.3662524011642937,-0.3471299743872559,-0.11875381896897014,-0.28443568553247184,-0.19994903207621498,1
11.125,2.3,1.825,2.475,14.5,12.0,1.875,5.15,583.0,100.0,94.0,150.0,816.0,704.0,106.0,344.0,10.0,11.0,11.0,18.0,16.0,15.0,13.0,19.0,-0.16526811150561443,-0.31482374268989255,-0.194347746635244,-0.278466143271867,0.20986335964053662,-0.3991238044199361,-0.14258664199252105,-0.2212064208228721,-0.07652811752804503,-0.15149560856059952,-0.08284351819576072,-0.19094492761169912,-0.31545688487455975,-0.34569024492759337,-0.0648939471932725,-0.20003496880343205,-0.13342067351430958,-0.4299422670860436,-0.05845862626746323,-0.19162815897801863,-0.155547756979832,-0.1930780407671705,-0.3106307881105849,-0.13145659494107562,-0.09578050174970545,0.09683112006467548,-0.0629911656623179,-0.20166424735849728,-0.27827767012767257,-0.1661561251435754,-0.19039974442157417,-0.24824674297382868,1
9.25,2.25,1.7,2.3,13.6,8.15,1.425,3.7,551.0,127.0,96.0,154.0,925.0,528.0,84.0,218.0,19.0,14.0,15.0,16.0,23.0,17.0,14.0,14.0,-0.5018566617898892,-0.38849598946659475,-0.21937022974532,-0.3012626223169107,-0.4515420993906872,-0.3147603714839876,-0.3809870381341332,-0.3719957617585504,-0.1894231100983716,-0.004401676400999693,-0.2847515571426312,-0.19416637979327273,-0.6900287612776711,-0.3641845338491012,-0.32866261107650474,-0.2689758075292383,-0.5820592402631314,-0.32266516641576004,-0.383101019378483,-0.031866162410064375,-0.3630703722293444,-0.09647119104272642,-0.21666258858261872,0.02242272460627165,-0.26747309987758466,-0.12574516635663324,-0.18386156792353547,-0.21828034550034364,-0.18118470645079038,-0.5261413394479053,-0.049490425242525476,-0.5130045669209647,1
10.3,2.825,2.15,2.475,13.825,11.55,2.15,5.55,617.0,178.0,133.0,166.0,870.0,700.0,124.0,334.0,19.0,16.0,16.0,14.0,18.0,15.0,13.0,17.0,-0.6928497164465476,-0.5154683680648934,-0.622687128323618,-0.5231663324739271,-0.6978443259636468,-0.5437899044921447,-0.4923459445689105,-0.3880772087095696,-0.42186557713216394,0.05321991452535062,-0.17217761759902725,-0.349811521925079,-0.5327260691670547,0.06688530357786233,-0.03293192665594823,-0.3071977088796613,-0.3720356752730963,-0.3100807398884572,-0.4153559614144018,-0.20398442913981787,-0.1745010178959762,-0.4158454940419121,-0.04238444857855829,-0.37802896911403466,-0.20907678270774727,-0.4482931029003146,0.04319701241725687,-0.1053335920684247,-0.3211129435375127,-0.38506278048763565,0.042316981034605565,-0.13904575177165612,1
8.775,1.975,1.6,2.25,13.725,12.975,2.3,4.2,514.0,125.0,104.0,145.0,918.0,785.0,132.0,272.0,17.0,13.0,15.0,16.0,13.0,18.0,13.0,17.0,-0.3363097251054812,-0.313171293598744,-0.21828388009360888,-0.4218968920330874,-0.45426497992029585,-0.14523236550377716,-0.42257656496577933,-0.4822434483816663,-0.3993873732659465,-0.04323606294496615,-0.019831063596520995,-0.20975230517641183,-0.4079855099889058,0.04408751836639541,-0.33979303647184717,-0.48329876174444236,-0.5553940715737291,-0.35193384096486435,-0.23148813373747695,0.08072439016372551,-0.3287094052444577,-0.39516353679267363,-0.12103046848246636,-0.09038807847182964,-0.2845441784893545,-0.39542080560680126,0.00932832977236918,-0.14888997900466966,-0.6434577404418454,-0.4196466629537503,-0.09254980764929245,0.04729195327001403,1
10.65,2.275,1.925,2.325,13.925,17.925,2.55,5.45,669.0,129.0,123.0,152.0,966.0,1199.0,144.0,334.0,20.0,13.0,14.0,17.0,18.0,18.0,13.0,16.0,-0.4063632148022836,-0.3620044889215905,-0.09693367125147814,-0.37294752406679826,-0.175009024145846,-0.07258675114307848,-0.21090668289299483,-0.3441548340613415,-0.2961544940836661,-0.18226717131669065,-0.25133188969676956,-0.20790635913414915,-0.35213127596044597,-0.12298689793524739,-0.34864493013362796,-0.145696714576041,-0.5888032990213101,-0.4106636865590166,-0.24341165077997795,-0.06967988084085165,-0.6922077006251193,-0.6633639855403857,-0.43605421865918814,-0.319431862661933,0.01111993397988976,-0.10880477979107105,0.03708431533594273,-0.36863408494679134,-0.2945448253634149,-0.238666622384945,0.03638495316329458,-0.27664518708562563,1
11.75,3.35,2.125,2.95,13.8,13.975,2.0,5.725,783.0,208.0,113.0,175.0,880.0,890.0,112.0,407.0,18.0,15.0,15.0,16.0,21.0,19.0,9.0,20.0,-0.6181887040761641,-0.30553256939256296,0.06047761415667311,0.0608045651305031,-0.32125308256977986,-0.1896105909414378,-0.013557668408561008,-0.1325135698625954,-0.07588682457820206,-0.29919692529949804,-0.1897196056492497,-0.17597510175313977,-0.342397716269259,-0.5022668209797495,-0.3629961666599373,-0.23851880846937132,-0.3396971686871015,-0.23421064031226635,-0.3355959313176173,-0.029019296810718256,-0.4738006406181111,-0.41044900069093293,-0.34352237889203024,-0.36169227686944,-0.07746761404203209,-0.005129447226762673,0.2101765282532248,-0.0248101563578461,-0.44239577846458333,-0.01076587148908802,-0.05646152431462192,-0.08862098167091366,1
9.15,2.55,2.1,2.775,12.6,8.1,1.9,5.725,513.0,159.0,114.0,173.0,937.0,560.0,103.0,395.0,14.0,13.0,13.0,15.0,20.0,20.0,13.0,22.0,-0.21687940614377238,-0.2751698279025532,-0.07496880984424817,-0.2135904578299013,-0.29351659486178455,-0.08502531470234485,-0.24461552403760053,-0.4442737773479664,-0.12755030355638966,-0.13786434615987214,-0.01688737032262756,-0.1080369007191197,-0.2630111120936895,-0.2939349563873244,-0.027577201950294568,-0.25377434279869815,-0.7436069012955144,-0.2901766472733433,0.112715280535129,0.3466906279184467,-0.3843043094867104,-0.06817458238825548,-0.10883141006598546,-0.3480491573357468,-0.26104219340143586,-0.12822571801592367,0.05469531816476525,-0.19476838519696663,-0.2505707354702145,0.1395940098075834,-0.2848486755149449,-0.08823721026818683,1
11.525,2.3,1.95,2.75,14.525,13.925,2.075,6.625,778.0,141.0,126.0,176.0,951.0,843.0,111.0,447.0,17.0,15.0,13.0,19.0,19.0,18.0,16.0,19.0,-0.357588597796117,-0.36183719658846375,-0.17049008257697454,-0.19712324437908418,-0.2751930593767706,-0.1365573413058245,-0.5765038988253359,-0.2654120877804058,-0.31074525035925105,-0.2117558730924868,-0.0962512924845078,-0.3927071664896229,-0.47389644002244047,-0.5303886614751181,-0.32589225497654745,-0.4124948476930977,-0.3707387265021485,-0.21207393134712782,-0.2147107836187332,-0.1352620878248518,-0.5157338555977525,-0.5925126105588968,-0.5044367187084644,-0.5540692953201838,-0.3210251168447929,0.08506886030531953,-0.2428908199012457,-0.22280578162209694,-0.536819679934695,-0.22823856435796488,-0.21600780706178713,-0.26017913596645725,1
11.1,2.475,2.65,3.675,20.125,20.6,2.0,7.625,716.0,162.0,149.0,208.0,1237.0,1112.0,111.0,535.0,15.0,15.0,13.0,11.0,18.0,15.0,15.0,17.0,-0.40251118707284383,-0.4773240999182583,-0.28124472884596374,-0.4897753695993921,-0.4178208668176928,-0.4171556723520647,-0.3116003338072585,-0.3359748335236734,-0.31620086546233556,-0.5926462297694547,-0.22719342591767475,-0.3569863714507255,-0.16849637928511194,-0.5610391677625509,-0.06794354118007627,-0.35922654013808086,-0.3611324613662353,-0.3986622933604249,-0.1256954199777439,-0.1808068360805408,-0.23692778266467854,-0.44491340822566083,-0.3006308610292489,-0.20610302170351436,-0.2577592358718592,-0.05376731266554247,-0.038289914341775096,-0.2192162913883627,-0.6235263759088063,-0.3885356622319517,-0.35187988107664026,-0.3918177146209948,1
9.6,3.05,2.575,3.825,16.975,14.85,2.0,5.7,640.0,198.0,136.0,203.0,1073.0,898.0,129.0,338.0,22.0,19.0,15.0,13.0,19.0,17.0,13.0,12.0,-0.5698401946426469,-0.689560756811505,-0.25771380145437406,-0.27575896387837445,-0.4504479241975213,-0.37840929883968405,-0.07887033922939875,-0.08567397166554222,-0.5116623438619404,-0.6286649393716482,-0.5725184497265648,-0.43878044613064987,-0.3310108450495415,-0.45212942144434687,-0.30857229217899057,-0.297063329891795,-0.531195359884001,-0.16364112188129695,0.1260829457658839,0.03884038838205462,-0.37185551906437825,-0.5857798415664143,-0.2801154259099833,-0.423952541646647,-0.4965926167390576,-0.2791059747126616,-0.09717641503943891,-0.29729115590119715,-0.4546737468024852,-0.40667022822730853,-0.4541498856320408,-0.1682118752595882,1
9.15,2.175,2.225,2.825,16.25,16.175,2.525,5.225,628.0,135.0,144.0,181.0,1018.0,991.0,167.0,299.0,15.0,11.0,12.0,20.0,18.0,11.0,10.0,16.0,-0.5632796111490055,-0.2164216287252515,-0.2794506390000983,-0.2852288549094266,-0.38853413648367635,0.16804267152394534,0.18897530613503105,0.020647754188724343,-0.3518024643045937,-0.15067522368397884,-0.31816571033376706,-0.1368365001820589,-0.5839564592658091,-0.3817502005946304,-0.288834486952744,-0.053156018612910375,-0.6206957434026323,-0.7238570405969645,-0.6129349657203074,-0.4562622743200926,-0.4372080710307627,-0.6386797767793783,-0.43148349227001265,-0.5755254526598874,-0.3856442327978594,-0.10277014322082496,-0.21002735309453055,-0.29905136837285945,-0.04516266976241071,-0.3783306172129657,-0.07555091085052217,-0.497587591892919,1
8.6,2.65,2.225,3.575,15.5,13.075,2.425,5.55,559.0,162.0,134.0,238.0,1010.0,768.0,144.0,321.0,17.0,13.0,13.0,15.0,18.0,16.0,15.0,17.0,-0.4559127485249608,-0.22157919057886472,-0.015489973925374372,-0.16802301675743428,-0.3760519584544764,-0.09763859381215977,-0.07375262336111171,-0.34998234111471077,-0.317402184685415,-0.15107504470408606,-0.12094183484190255,-0.036163360851646155,-0.6348697324590158,-0.4231583274602126,-0.28042491106567247,-0.30771212133496795,-0.4910546503819335,-0.5281161039358542,-0.3262640172474972,-0.26260001091551116,-0.3519124585844955,-0.39141396526515326,-0.4821868010936022,-0.16486934026609434,-0.1943145758170253,-0.13105375974049463,-0.18329859215557961,-0.21679413998649064,-0.3416684349221522,-0.2110407580221532,-0.3542458048835367,-0.44542671848565757,1
8.175,4.025,2.425,3.0,19.8,16.2,2.275,6.475,516.0,251.0,125.0,155.0,1407.0,918.0,131.0,414.0,17.0,18.0,14.0,12.0,17.0,13.0,11.0,16.0,-0.39589018276371296,-0.37777597281066905,-0.1623495261663805,-0.30630900547010625,-0.5013683228236966,-0.33487246362018847,-0.29090670615172276,-0.2657933108040623,-0.1691461581002279,-0.4464668439162144,-0.1291634047324908,-0.18256807916184226,-0.2530765934067535,-0.3429659114512348,-0.35317191113257557,-0.1656539872283658,-0.803720074448278,-0.5500704963735228,-0.22946506225042065,-0.2833880953126723,-0.1101460696668222,-0.5470461120187452,-0.2276945063046362,-0.23992674965984095,-0.164760063765722,-0.06526185473860095,-0.26006719999289124,-0.07061568023601046,-0.26883486621651775,-0.17325518572038107,0.07305499384616047,-0.18668942985916087,1
10.1,3.65,2.275,2.775,19.3,16.35,2.725,5.575,629.0,236.0,119.0,162.0,1217.0,883.0,176.0,374.0,17.0,16.0,12.0,12.0,16.0,14.0,15.0,18.0,-0.03695047640090566,-0.6375453355364831,0.07777815899217114,-0.1263137461540614,-0.5405212461111761,-0.33158138122895064,-0.4845771279150634,-0.3399235822414508,-0.04933563690660078,-0.1551050730978602,-0.10581303007112512,-0.18428171492176748,-0.1279559718358617,-0.2092811202807063,-0.055148835634066286,-0.11643531750027354,-0.34676053086251996,-0.4636068266601745,-0.06394811627999426,-0.21653705931312733,-0.1850629830901553,-0.45835277959930587,-0.16945258054704815,-0.11685319209982362,-0.4282141803392566,-0.22818441013400495,-0.22466227693010396,-0.37552999738315784,-0.6011509184815718,-0.3607657524030219,-0.10709037038365578,-0.17228655290046072,1
12.35,3.35,2.3,2.95,19.35,18.25,2.5,5.675,685.0,200.0,115.0,151.0,1238.0,1119.0,155.0,402.0,16.0,17.0,13.0,13.0,18.0,16.0,18.0,20.0,-0.0817322641948211,-0.3391463443451239,-0.02873184907112394,-0.23860812787266328,-0.3105223277697037,-0.2091613298671442,-0.06711297248419572,-0.05748407944450519,0.026418178058829074,-0.2945592454515919,-0.22790657478352597,-0.004262289645990907,-0.06523548942866936,-0.23161756416489274,-0.10200034010408256,-0.25845769990175405,-0.5031418919812799,-0.501582630523458,-0.32703447360088905,-0.3672228327724657,-0.4822818382787666,-0.8171597390497028,-0.5005978183714468,-0.575789817174783,-0.4149049298026471,-0.16523661102534554,0.013622045828025928,-0.1264249475846703,-0.3692500905465117,-0.08967800270221139,-0.08591989037976171,-0.31979575284365225,1
11.7,2.625,2.35,2.925,17.95,15.55,2.475,5.1,676.0,177.0,154.0,170.0,1234.0,1063.0,156.0,374.0,14.0,14.0,20.0,13.0,21.0,21.0,17.0,18.0,-0.4755279909404353,-0.45138139929959326,-0.22805440223133486,-0.32620266862466635,-0.43197006110820774,-0.2468320892429365,-0.46031684114815263,-0.27054896146050816,-0.6568191090986778,-0.26349894655550876,-0.3054204153564756,-0.2651895977282932,-0.4249052144831337,-0.20227071690086115,-0.5025553135868885,-0.4166203712915635,-0.6144162177083938,-0.5853839561828401,-0.1653903598213,-0.08258260652307749,-0.5957241730600744,-0.8988463782233532,-0.45830560771387596,-0.5500164141663468,-0.4472140547387098,-0.5074015813349437,-0.26227709352326006,-0.231380892567147,-0.4167418459904462,-0.12885333448310662,-0.05789243638485528,-0.03943264342366745,1
10.825,3.3,2.175,3.05,20.75,19.6,2.85,5.125,673.0,199.0,130.0,172.0,1372.0,1203.0,167.0,297.0,16.0,15.0,12.0,11.0,19.0,17.0,13.0,13.0,-0.350909002127601,-0.11402072550022685,-0.14352507811649565,0.04708333804032229,-0.4639509212362858,-0.20864315416256557,-0.24829759219224784,-0.12424153733922234,-0.5255195543538761,-0.4291928896384118,-0.3155202419795301,-0.30638189611508326,-0.35819693983759515,-0.14251150181678116,-0.33630881636747695,-0.30682467551860737,-0.4779106465248441,-0.29864685268421465,0.11774737326416662,-0.11166996285474783,-0.5589513346568854,-0.5169426338697699,-0.37291828584111614,-0.38426966652812644,-0.31705874974377046,-0.12359488748990397,0.19145438152870556,-0.06593187012909092,-0.40453975319820157,-0.1069894368975871,-0.10204411380208382,-0.21327470594680023,1
10.225,3.175,2.375,3.025,19.325,20.35,2.5,5.975,686.0,206.0,136.0,188.0,1412.0,1284.0,153.0,377.0,20.0,22.0,16.0,14.0,22.0,18.0,16.0,15.0,-0.5370206452940192,-0.49197812318308687,-0.393274560363741,-0.34560272540532677,-0.5264524253714326,-0.39485106904242157,-0.3188266475680573,-0.16662935476951884,-0.5568540585289214,-0.5059763248130997,-0.49819520977821347,-0.48304244973812793,-0.34286936612540947,-0.38324598688669387,-0.3206622791412731,-0.3463017780427708,-0.6211273716421752,-0.17377716953638403,-0.16766025193604425,-0.24396864212289904,-0.6357872382300145,-0.5533423538467229,-0.6555401920909282,-0.4170189143343831,-0.5298066238510528,-0.055344925958337295,0.0926247833616603,0.19647293321038517,-0.46294720914343185,-0.3030360071408502,-0.28411979244692415,-0.20732848707942036,1
9.925,2.15,1.8,2.375,18.4,17.425,2.025,5.85,690.0,130.0,90.0,140.0,1182.0,1078.0,108.0,383.0,21.0,15.0,11.0,13.0,20.0,18.0,10.0,19.0,-0.6021789784202811,-0.48536786700369533,-0.2446996460416872,-0.28287862013714293,-0.3254191366561286,-0.507299929240524,-0.16846968382341698,-0.24461112032745685,-0.3485768749408858,-0.5837900819807402,-0.44672880950489874,-0.52942081679746,-0.3362095635290484,-0.4595832525800036,-0.28606183959064124,-0.4293527633950549,-0.5079198311975126,-0.26586107936531245,-0.33495029454452985,-0.273276112104973,-0.4423265157528947,-0.6196649216464813,-0.4344337911561482,-0.4854321304342948,-0.1613493972665265,-0.21851591985767807,-0.09229691249209197,-0.13015093874128136,-0.26085069935622923,-0.09920222089454718,-0.20582613807396483,-0.3833204738423877,1
13.4,3.875,2.55,3.75,14.8,13.775,2.275,7.85,873.0,231.0,164.0,228.0,932.0,828.0,146.0,467.0,19.0,16.0,16.0,17.0,13.0,14.0,16.0,18.0,-0.2722753010415869,-0.15885354871897306,-0.33272472207619613,-0.2787212007862596,-0.3171437294623803,-0.40403377663592105,-0.22127823829159776,-0.3982548285032409,-0.42203825996258926,-0.2821622632817715,-0.033668150322153534,-0.5026872154078021,-0.3516550918798131,-0.2134047672277917,-0.07222332430752804,-0.5929088302529765,-0.46350280517181286,-0.25486135188448544,-0.40317643114760277,-0.2324520681340397,-0.3528677916194643,-0.3224128904589483,-0.3965296345575589,-0.4671345987780159,-0.32003643589401426,-0.20285084526221442,-0.1888964497301318,-0.20851731058277223,-0.2593834175748004,-0.36608005529257315,-0.2570531300237255,-0.5147927574584813,1
13.5,2.525,1.9,2.65,18.55,15.8,2.5,4.6,919.0,152.0,114.0,149.0,1108.0,984.0,155.0,268.0,20.0,14.0,14.0,11.0,20.0,21.0,17.0,17.0,-0.5080425781574169,-0.1747603381855848,0.08409701310493453,-0.06221584012019776,-0.259776012754048,-0.5053102625850739,0.048160221944845524,-0.18813792079826377,-0.41438543603193745,-0.4086480359312823,-0.45246952696136056,-0.11718000850354074,-0.5311039608582783,-0.48689636006809683,-0.20290591625884424,-0.17738231806692942,-0.2855385842910336,-0.10903037552008617,-0.25875799951779,-0.346809684503374,-0.275547550110173,-0.04191348050089553,-0.1444356148590789,-0.20907975379651375,-0.2399774486758483,-0.2658847481755952,-0.18810638822857753,-0.1051629389368995,-0.3312189943247188,-0.3764769807388674,-0.21105759333009722,-0.24523280361081232,1
11.95,2.625,2.15,2.7,15.5,18.4,2.175,3.475,786.0,138.0,126.0,143.0,899.0,1141.0,137.0,214.0,18.0,13.0,13.0,12.0,17.0,19.0,17.0,17.0,-0.6155170389396217,-0.454279585478861,-0.24127149838672773,-0.130716700965187,-0.15076032632287942,-0.7641371201089773,-0.12608881874107458,-0.3101503410419662,-0.26961919531845974,-0.46323319028150656,-0.3363628765356158,-0.07934354051189751,0.06270139461617724,-0.44990132691135615,-0.1685197871615514,-0.13691246093128542,-0.2075719257840013,-0.2017602693740992,-0.23043529600667068,0.04640667178016815,-0.4021308282785257,-0.6185833504132326,-0.18976034200697833,-0.3406866778541172,-0.44044944937199476,-0.3716958596579253,-0.24560706237924732,-0.32677266596818727,-0.24265055871732807,-0.18789696062276912,-0.2829961722405792,-0.02799536517135248,1
12.425,2.55,2.175,2.925,17.625,15.525,1.8,3.725,753.0,125.0,139.0,179.0,1133.0,974.0,108.0,229.0,14.0,17.0,13.0,20.0,19.0,19.0,14.0,16.0,-0.37266137191005494,-0.3919420234894493,-0.2056132818039032,-0.35213547609851215,-0.29177572672418367,-0.563937125510955,-0.3773294800508016,-0.2934318591527698,-0.3715889759666335,-0.20562979350852773,-0.2599225794669173,-0.3096164271506538,-0.4677181029631065,-0.3232792082118761,-0.43596176561934297,-0.46857584631666477,-0.5015970014804473,-0.324633905407206,-0.12429811561278843,-0.32541555103657677,-0.37186955196353094,-0.5414832187790145,-0.2576408516419307,-0.6208130152143243,-0.31072113793472905,-0.07619091626577237,-0.23659650433766588,-0.19983335593266455,-0.20825443412371433,-0.2732283169363012,-0.07944858800472789,-0.26211414271415834,1
9.425,2.7,2.8,3.325,14.05,16.35,2.325,5.525,598.0,180.0,172.0,219.0,809.0,979.0,133.0,379.0,15.0,13.0,18.0,17.0,16.0,18.0,13.0,16.0,-0.3388625706731626,-0.32804948481357354,-0.31132731530233604,-0.20701826529521603,-0.6502498787071507,-0.23766670392828126,-0.35948504043848895,-0.24560371610729217,-0.5431351303557489,-0.3143565074965862,-0.4425662820889867,-0.26400773034019387,-0.8389666796140802,-0.6848617329366838,-0.7948518024154207,-0.47413235092062206,-0.2560637050907102,-0.3384304894963029,-0.3389931783679208,-0.2761592226526875,-0.4842074547804072,-0.5264666688649647,-0.4563153583812256,-0.3685027258951276,-0.2225747312085462,-0.32588724778384437,-0.39316890386657605,-0.31832347396381105,-0.321937784357283,-0.33604227509333306,-0.237085248346122,-0.44935560033178323,1
8.925,2.175,2.3,2.55,16.75,15.25,2.0,4.925,511.0,125.0,134.0,149.0,1160.0,906.0,129.0,340.0,15.0,13.0,12.0,15.0,20.0,16.0,14.0,18.0,-0.19253304122626685,-0.5440883647875683,-0.20989128894566936,-0.30206754466682284,-0.2639016591880685,-0.4896033626936891,-0.22312001977824067,-0.25563900449304366,-0.4730174615784916,-0.2142814928870881,0.01468933864265596,0.14804577307613906,-0.4235559025113315,-0.402115232750933,-0.23442597562587378,-0.1703285233885198,-0.834525584197051,-0.43868124665145597,-0.15566253104825004,-0.08050288641661768,-0.6125366487017748,-0.5874074372626541,-0.5704268213457275,-0.4773557795632777,-0.3479054923574504,-0.13735287532086043,-0.010128582433901885,-0.21477017845952373,-0.38562592429557135,0.018894503197544727,-0.0681837472665198,-0.44874937505474033,1
11.325,2.225,2.05,2.55,17.1,13.775,2.0,6.0,704.0,141.0,132.0,154.0,1047.0,832.0,123.0,387.0,19.0,13.0,15.0,15.0,19.0,15.0,14.0,17.0,-0.27925669613670107,-0.5124090900008054,-0.20111281458477728,-0.2658238856075476,-0.2818657196474058,-0.3634208562993276,-0.2078910752962228,-0.3435801909349349,-0.7019091869395535,-0.6556974269326622,-0.4194092293420301,-0.3954667948225227,-0.4160728310361017,-0.2748514394174866,-0.2002295021638669,-0.11026605200773358,-0.5409964112175789,-0.398987376048112,-0.5425401302628491,-0.4618717795417646,-0.43232309637569977,-0.4611499160573733,-0.45726273855234406,-0.31510721151960835,-0.35495387726309935,0.08545010587277015,0.04045921292194255,-0.18422621827610808,-0.43363834328319023,-0.30202466583805654,-0.11242711962363121,-0.16094662238864188,1
11.15,2.5,1.975,2.825,14.425,12.275,1.9,6.775,615.0,131.0,113.0,150.0,781.0,650.0,115.0,443.0,14.0,14.0,14.0,15.0,12.0,14.0,11.0,20.0,-0.26540353429919566,-0.29732463356460465,-0.3712892537682776,-0.13390136437207503,-0.3391686953418182,-0.3058156660038308,-0.25560608577178273,-0.03183649939599234,-0.2877024571119957,-0.23687579938137018,0.001978831048002233,-0.1528135957693449,-0.17914222776501362,-0.18370134472296623,-0.15850787513619805,0.013565323835519644,-0.23751411032604539,-0.24906580847316137,-0.20339058849842237,-0.35525159757650465,-0.07712162270466906,-0.7284036079890347,-0.18001812123314417,-0.25510662484966506,-0.4173333389723793,-0.23465397152123152,-0.26208478936473606,-0.2642530929771681,-0.6606379318718205,-0.3397841344622165,-0.2609000643875602,-0.14847729958648234,1
13.65,2.275,2.125,2.7,21.225,15.95,1.875,5.0,825.0,122.0,121.0,140.0,1394.0,954.0,110.0,291.0,15.0,15.0,17.0,12.0,17.0,15.0,13.0,13.0,-0.477753025853587,-0.2863511111336548,-0.46314746917527283,-0.5810014112142027,-0.10815381449873682,-0.1803615167322617,-0.25503128067489567,-0.2189085790781749,-0.12240978460124852,-0.36744464982555586,0.01294257252607615,-0.2945787778414215,-0.09715569334460437,-0.13549917913202847,-0.11312033012362635,-0.22518510442624595,-0.7335715783595151,-0.5123018990049119,-0.3601039145692251,-0.17348817119091697,-0.3239303627674148,-0.11795384349066883,-0.3727003727490548,-0.3264783932458808,-0.32389627281283295,-0.14145394953787574,-0.03670973935477827,-0.3262228460536175,-0.3338127514331125,-0.19432172505419196,-0.26962075133597496,-0.2539682683566119,1
13.7,2.75,1.975,2.275,18.9,17.55,1.925,6.7,856.0,154.0,123.0,137.0,1285.0,1107.0,111.0,426.0,17.0,17.0,19.0,14.0,19.0,16.0,16.0,19.0,-0.4547236304318191,-0.5266163495542111,-0.36003899845864457,-0.5535388904216677,-0.3161527891714144,-0.22110536847135467,-0.20775834869113421,-0.2876162333778866,-0.5132461725917952,-0.29907499209126853,-0.5076197088142208,-0.29969878075696404,-0.40110627233084073,-0.32584434092768494,-0.5283901544196814,-0.26765710258588477,-0.803709586700326,-0.5598331106397109,-0.6624440369468897,-0.3417507748904897,-0.5548737139037606,-0.4379732467823001,-0.4954535481870297,-0.48515609689418776,-0.4262698158195388,-0.09292486034964446,-0.12244944808259285,-0.21398093349423686,-0.5801971179603919,-0.4608018471620546,-0.29456015786630446,-0.18411926917080762,1
10.725,2.25,1.75,2.15,16.6,19.85,2.225,6.675,711.0,137.0,117.0,130.0,1015.0,1169.0,139.0,423.0,17.0,13.0,16.0,15.0,15.0,18.0,17.0,17.0,-0.42511767777419057,-0.38491410853156227,-0.2356963527717748,-0.3262287355194689,-0.22413196836178634,-0.2787401040320098,-0.17215345110532349,-0.3922324996924976,-0.3955858410002704,-0.0986746669759563,-0.23515300970532294,-0.0227184879401826,-0.32805033185122306,-0.22058930913063376,-0.2453418858501225,-0.3919421255706657,-0.46841373475173614,-0.5734229152601545,-0.4370051210845921,-0.36889484522647836,-0.33068197456863285,-0.5172012731314847,-0.21056382240818539,-0.30830454071247354,-0.2953646193867355,-0.26771311952681975,-0.05762230248798556,-0.11551672543622139,-0.2504250306455498,-0.032340115946404076,-0.1500836403004884,-0.2741008032987404,1
10.25,2.05,1.875,2.675,15.075,18.6,1.925,4.875,568.0,118.0,104.0,146.0,940.0,1015.0,121.0,279.0,16.0,8.0,13.0,9.0,16.0,12.0,12.0,16.0,-0.05204445094257586,-0.004001481205809987,-0.19419548520318394,-0.3507659075867108,-0.19270786965436998,-0.1692713905458228,-0.09014415948214945,-0.2791960391472827,0.13993728155830956,-0.4714986002180045,0.12502629306032195,-0.34431279175482954,-0.036330599239299474,-0.11746442488953662,-0.1401105918145402,-0.09168901945616095,-0.3264854389838482,-0.30690300878841437,-0.39975851512193367,-0.25588150072732657,-0.2062562777536035,-0.4752393689994844,-0.4503007808629887,-0.24522160879853766,0.10394715193687386,-0.32803578407625245,0.2453992740945559,-0.13326022191619472,-0.3041129328374593,-0.24385410912454195,-0.0589694231847531,-0.03125964874757422,1
10.55,2.325,1.725,2.825,19.45,14.65,1.625,4.575,660.0,126.0,93.0,181.0,1329.0,872.0,94.0,272.0,18.0,12.0,8.0,23.0,16.0,14.0,8.0,16.0,-0.48628534226962156,-0.2703720030243862,-0.2913192569924177,-0.430525987307036,-0.17325981344303532,-0.36815686683507476,-0.19189364591094224,-0.3820210288815942,-0.054554861225535094,-0.2298963500773578,-0.11681546321835383,-0.049535820037448164,-0.4700582206073071,0.1326737534530097,-0.2138865982521406,-0.2919803073708689,-0.4791529936527764,-0.5849710220567551,-0.06136614235409869,-0.1657699775426768,-0.29971907235953804,-0.301178669322767,-0.060578804017303874,0.04835356214366746,0.12223441581283637,-0.18386681017896506,0.21096892600807818,-0.2946440694198865,-0.2970022156711056,-0.18657391817389204,0.042581272340394695,-0.26333748961108316,1
8.275,2.6,1.8,3.0,17.775,14.5,1.675,4.075,513.0,116.0,104.0,188.0,1151.0,812.0,86.0,246.0,14.0,10.0,14.0,17.0,17.0,12.0,10.0,16.0,-0.39358460525820005,-0.2725757031758437,-0.4583505091408695,-0.23008756072164943,0.13943638276106632,-0.46135980477975463,-0.12436648250461846,-0.42191361105635444,-0.015594104125796667,-0.259200266350319,-0.09078159040393616,-0.41397536441056293,-0.2752062330688598,-0.03392123594105488,-0.1392931566824992,-0.23216048381058177,-0.4595638948638517,-0.29288226449098637,-0.26481743757286025,-0.2883843624266457,-0.17330341767517296,-0.314412361763779,-0.11515968433899265,-0.31441805975305187,0.019522235003681693,-0.22544521983742852,-0.180685733832357,-0.32701010112274453,-0.2512855765994018,-0.17281681718906786,-0.08478403226551397,-0.27526475980112314,1
9.5,2.375,2.4,2.875,17.55,16.875,1.875,4.025,610.0,139.0,139.0,181.0,1275.0,1027.0,92.0,244.0,14.0,14.0,16.0,16.0,21.0,17.0,16.0,16.0,-0.42225672482992443,-0.352595851636749,-0.24994734184198683,-0.056088496527280374,-0.3390800004087265,-0.22241385729288266,-0.40612151431500143,-0.3730350900618485,-0.3319694030199025,-0.2923298470168154,-0.19675047387537675,-0.284772534740225,-0.24507390413017885,-0.3863867329335331,-0.08158936224819201,-0.2787639137524938,-0.8302012429187987,-0.554983227004598,-0.47518379765565955,-0.43369227828507595,-0.29001721930907054,-0.40694254772740224,-0.15572662379777127,-0.3742107769081748,-0.2424296261979275,-0.13381761108005658,-0.09619102070134412,-0.3170859263035576,-0.23100061125830088,-0.2228839934986793,-0.26026590170232544,-0.23026681510790334,1
10.425,2.725,1.975,2.3,18.825,13.9,1.9,5.05,681.0,154.0,133.0,147.0,1235.0,918.0,118.0,300.0,18.0,12.0,12.0,12.0,19.0,19.0,15.0,16.0,-0.31062386072438736,-0.3902803681593334,-0.15157865056924644,-0.11077579432880715,-0.21925942423246675,-0.5069387524237084,-0.2537106017553813,-0.24126142165685235,-0.4966747258827407,-0.3869727257829286,-0.13504284681876177,-0.25311084069958006,-0.24743823033051604,-0.307752429024966,0.11313527660268037,-0.1414210442994638,-0.41831997430246987,0.004873849324930611,-0.18787797265286876,-0.1736819006884833,-0.36189797707634436,-0.5090500738129385,-0.15260631022416152,-0.3957291837403419,-0.16829742216983393,0.06721476622894737,-0.11360623594824178,-0.11995435733051413,-0.23700191584948,-0.1690174934675816,-0.24115331432549886,0.054446786657471165,1
8.8,2.1,2.125,2.5,17.675,16.475,1.425,4.5,592.0,127.0,137.0,152.0,1139.0,1111.0,79.0,290.0,18.0,13.0,15.0,15.0,14.0,17.0,7.0,19.0,-0.5537683121545725,-0.29808651006112497,-0.4943005004372682,-0.4683024214098358,-0.2825022895513408,-0.23127360928373616,-0.11584515746693172,-0.23132398475057886,-0.46168833241558976,-0.28267733601596434,-0.14885350755409923,-0.22579954905438243,-0.3123808746642048,-0.35968545284981873,-0.17848539137557415,-0.21810009103557562,-0.44378363582531777,-0.27448349874642436,-0.22446412946509667,-0.24796358782279504,-0.6107272821841326,-0.5236480902298332,-0.3659121988981666,-0.5198638671419396,-0.10905618330560565,-0.24605114431712635,-0.19234615294410873,-0.4009987955852191,-0.6504148485627986,-0.45173517390842605,-0.40812892595330746,-0.38627850335768626,1
8.525,2.4,2.075,2.55,17.05,17.5,1.725,5.225,551.0,130.0,118.0,156.0,1007.0,1052.0,93.0,331.0,18.0,12.0,14.0,14.0,16.0,14.0,16.0,15.0,-0.4641190151388859,-0.45948530746546,-0.23269941174477743,-0.27862304253787945,-0.14945364912080394,-0.2507528882770406,-0.08909805718257152,-0.4087430898391343,-0.39342858220702037,0.09503424118520976,0.015673922451397364,-0.2150712882281863,-0.4113011868845424,-0.4333424985635769,-0.21384848406029036,-0.275007544507445,-0.26351046748475143,-0.33234804062154655,-0.19783989551901918,-0.3871996270660604,-0.47533835772895117,-0.6092631302420797,-0.37401466020145574,-0.6596333756482881,-0.18807278687888157,-0.2417735821712647,-0.17885790886406475,-0.014369342319397651,-0.43592270439502606,-0.20552094915207383,-0.14192256736831424,-0.32671214903709433,1
10.275,2.675,2.1,2.975,14.95,13.9,1.925,5.025,737.0,159.0,113.0,173.0,966.0,745.0,108.0,335.0,18.0,17.0,13.0,15.0,17.0,14.0,14.0,18.0,-0.5127905044163215,-0.1444294386321325,-0.007784814517964491,-0.2337442914683589,-0.5841022600151773,-0.44533314066394986,-0.191792753812375,-0.2801693859117827,-0.17795149842751973,-0.30647298720606103,-0.04090689440177435,-0.29954742342931756,-0.062713194271302,-0.5933452876423698,0.190592858912543,-0.32980735782521076,-0.3615002108351546,-0.20632141413426333,-0.11916946563117678,-0.3475356136138575,0.11606153079211731,-0.5942729802511392,0.08676709275169099,-0.47519432772373427,-0.23163117389508292,-0.18521495905087149,-0.2534240297396301,-0.436467603571399,-0.4700217240184218,-0.003479929903179804,-0.436367644264603,-0.5013054500390469,1
11.2,2.8,2.05,2.875,18.825,16.0,2.5,5.2,773.0,188.0,121.0,186.0,1084.0,851.0,155.0,350.0,19.0,17.0,11.0,18.0,18.0,13.0,20.0,16.0,-0.36434948858144844,-0.11019449361805353,-0.20516942098860505,-0.1572352316239817,-0.6621149823038732,-0.5556918876092561,-0.45103668978199674,-0.35739396393679385,-0.17242807746545002,-0.05898898233982746,-0.2527206428211081,-0.35960773828347226,-0.385117677431174,-0.35862990127078453,-0.12950234438622776,-0.1658186987815545,-0.46051153355217445,-0.44179770850158057,-0.11949868172056766,-0.10003162737606043,-0.17045926327394081,-0.3673344867378266,-0.4730037290806822,-0.056381044716121466,-0.20494605007249073,-0.03145387450967349,0.0272020011260444,-0.16520603835748762,-0.4039701021931851,-0.31937275376689145,-0.12544277327995954,-0.15319078714969434,1
14.5,3.125,2.125,2.825,18.85,15.675,2.275,3.85,918.0,192.0,135.0,198.0,1166.0,1061.0,130.0,223.0,17.0,14.0,16.0,14.0,19.0,17.0,10.0,12.0,-0.4371045971167503,-0.34028489660598565,-0.4555606815492473,-0.3423020757378852,-0.25940417138149074,-0.32224484004142573,-0.2675770289374849,-0.12916146091379563,-0.5088094888376895,-0.2362462193045063,-0.0791134557394295,-0.21392674623621022,-0.785673647414231,-0.51461250489443,-0.2982485025586321,-0.18228051526793917,-0.6021007383243777,-0.37633275495764257,-0.275113724966329,-0.16456392989404856,-0.7188921137400887,-0.46462832688966926,-0.4127487096952935,-0.15500161728746728,-0.068649497049609,0.17722030676713005,-0.22310044704038487,-0.2665101257340831,-0.16553688998451252,-0.25423027928697206,-0.2931564861039804,-0.19404442322718443,1
12.075,2.65,1.95,2.625,13.075,14.5,2.15,4.125,822.0,146.0,109.0,163.0,881.0,905.0,120.0,268.0,20.0,11.0,13.0,16.0,16.0,13.0,16.0,14.0,-0.6727808946989816,-0.33397351679218645,0.1110841255519284,0.052814804132641155,-0.2973117996149678,0.03259136034139363,0.05863134579746862,-0.0910649484689501,-0.3808760082002257,-0.1420435163292202,-0.1765094783656327,-0.09121623143303807,-0.5229071245398319,-0.17081775011380912,-0.15937926845586786,-0.33911085067246033,-0.48951773345145777,-0.417034106934479,-0.27611453689885446,-0.24312834016148543,-0.31598543150705655,-0.0428452302742027,-0.0829539944882776,-0.15682472682485382,-0.4196960545809869,0.021641771355511718,-0.09405030223837459,-0.13020676575651668,-0.3030882490242203,-0.11722718762028098,-0.3660851736628719,-0.15280655267384616,1
11.525,2.45,1.925,2.625,16.525,16.0,2.075,4.25,789.0,138.0,100.0,146.0,1008.0,917.0,108.0,295.0,18.0,11.0,14.0,14.0,16.0,18.0,14.0,16.0,-0.5045448206004822,-0.17500974695112656,-0.09491982306022546,-0.1555637332536464,-0.02550021852052652,-0.08836684628451946,-0.17222795121676848,0.02997233830100373,-0.1566140752703923,-0.11086561155880936,-0.21799705902928548,-0.06890588597686813,-0.22739774745364796,-0.057300261210933026,-0.11698753213626963,0.04373199559687366,-0.5861777338653733,-0.5812515797931663,-0.4718278737498711,-0.39185689780696686,-0.4702074113081789,-0.4999942345630874,-0.5825749174156643,-0.389205018260547,-0.07743412685029025,-0.41304798471298504,-0.22176044418335067,-0.1847001438924967,-0.3891200969777953,-0.17252685668121712,-0.23116396750684187,-0.0746288520946421,1
10.5,2.625,2.1,3.025,15.9,19.625,2.45,6.175,648.0,152.0,126.0,164.0,988.0,1200.0,144.0,447.0,14.0,13.0,13.0,15.0,14.0,15.0,14.0,16.0,-0.31379596653310426,-0.060879001651829086,-0.24968948417113918,-0.15622109153803848,-0.3978162297732974,-0.46241715839910114,-0.2036223331560988,-0.2381588260382187,-0.4288699464365049,-0.2192515710668492,-0.20476957861201706,0.06098380046112573,-0.1627914522825109,-0.4047104123191405,0.0691410748001502,-0.16164257440140073,-0.4865841375812132,-0.37163647307541153,-0.24758400606087722,-0.05473125398896332,-0.5555826764630579,-0.5857585370127484,-0.41580599024300746,-0.28063569332741617,-0.18533147656101964,-0.14358112792640984,-0.20777957040126185,0.05315024578113387,-0.6391016471259692,-0.2475649659658135,-0.25839859143604843,-0.19429420632691727,1
8.95,2.625,2.275,2.55,18.575,18.575,2.25,5.75,644.0,162.0,134.0,146.0,1135.0,1096.0,137.0,375.0,20.0,14.0,12.0,12.0,16.0,16.0,14.0,14.0,-0.4908389776152012,0.020748434142505094,-0.07072824519849528,-0.17320723825896622,-0.3551412974577906,-0.19528031246363586,-0.2217603678889197,-0.19315697228180279,-0.4203364742985382,-0.214552548957084,-0.36946426785327013,-0.1751480234545026,-0.2554392782925696,-0.21685348090467294,-0.14154573509613097,-0.1485809773883479,-0.27484663700556633,-0.3654659884698215,-0.2787461913982209,-0.15710633320528838,-0.20804926014145536,-0.29665999481431704,-0.35356684770970015,-0.12094123699572445,-0.19578633725636377,-0.19259924708010637,-0.16985577262768878,-0.2390335213465624,-0.38587208543496854,0.015255075108342765,-0.05132104830814361,-0.20615431900914005,1
9.075,2.55,2.3,2.725,17.75,14.975,1.95,5.775,550.0,131.0,133.0,171.0,1066.0,839.0,114.0,379.0,12.0,10.0,13.0,13.0,17.0,13.0,11.0,18.0,-0.38915578861531935,-0.3464450055846925,-0.47291254042264147,-0.25067013189479626,-0.3266172663611068,-0.3951842452149146,-0.3755513951788649,-0.4091133458246751,-0.241290322434501,-0.0874885347120045,-0.18153055749719196,-0.3391237624592581,-0.21325006353639203,-0.30242793215906155,-0.04094843661851778,-0.3872633269828626,-0.21326280295777317,-0.2113577957216763,-0.316438162573821,-0.12075882930054023,0.07665598338580039,-0.20311464154204498,-0.36400342589914697,0.0834260454650076,-0.19187330429761285,-0.2529573072432169,-0.21903611920965585,-0.20816131897475582,-0.4224777548389791,-0.19936962384404933,-0.1342612404933544,-0.17041894729574994,1
9.375,2.575,1.75,2.675,18.775,15.15,2.175,4.075,640.0,150.0,115.0,179.0,1224.0,957.0,136.0,254.0,17.0,16.0,13.0,18.0,19.0,19.0,15.0,15.0,-0.6893060279826667,-0.4745979972692957,-0.2823081472446917,-0.16636158416053673,-0.4543960967161149,-0.6432671480461837,-0.3626292613955108,-0.35811592179012264,-0.39416086542141515,-0.21084780105598508,-0.05599556398830158,-0.03775320938314507,-0.4549473179979691,-0.33052596142627344,0.018907122836394053,0.016140394550361595,-0.5128876370295625,-0.11767172909841905,-0.12843763322230822,-0.354324241307233,-0.3652070550686077,-0.4095227724431582,-0.08108864032630227,-0.13784551211125276,-0.42207916200305967,-0.3875334910470095,-0.28437154619624433,-0.25981373374683386,-0.37459741593509893,-0.1099944661343725,-0.09020992663346802,-0.15340559388102096,1
12.025,2.925,1.9,2.3,17.225,16.525,1.6,4.875,764.0,185.0,114.0,139.0,1115.0,944.0,101.0,321.0,20.0,18.0,9.0,14.0,17.0,12.0,10.0,16.0,-0.5191972468355037,-0.5334331832242254,-0.34022085023703763,-0.37919023224778897,-0.4673839093911323,-0.501672556033468,-0.22090071323232316,-0.33902409167263914,-0.274605617100121,-0.3446475633741067,-0.2838724749219062,-0.19733002968426674,-0.34408115688841723,-0.44584142389180254,-0.2706637195896231,0.014849996603108633,-0.5017240628422349,-0.2211305754656939,-0.20499540917399617,-0.21948389344266897,-0.36853368892586413,-0.4737374628748254,-0.3763450494353702,-0.40719089749236853,-0.30863377719227836,-0.1952673153547883,-0.12332407740358894,-0.260644686069543,-0.5480761788019503,-0.3133647032116003,-0.6311590732619025,-0.5736849608870582,1
11.7,2.975,2.2,2.65,13.45,14.4,2.45,4.95,654.0,175.0,148.0,189.0,835.0,983.0,148.0,264.0,13.0,14.0,21.0,16.0,16.0,18.0,14.0,11.0,-0.41680379205558066,-0.4997755886010129,-0.44538587405225166,-0.42422434149040633,-0.3397655443698373,-0.33315561088530043,-0.3093883203525043,-0.338646136778953,-0.47795911771343913,-0.2111244992935,0.04851992798728984,-0.040221641997072545,-0.5541331756146427,-0.18776374595843756,-0.04065049677305809,-0.05108734748535462,-0.23587434338557353,-0.09873861489059427,-0.23716436112877265,-0.14961077551274854,-0.371590264895888,-0.17933830489576902,-0.10291047938816233,-0.29851188514283566,-0.24675567555424777,-0.15789484443368068,-0.22103977412822273,-0.4715441327822634,-0.3297100714903979,-0.3424402830695382,-0.3914999838999437,-0.2765005500354145,1
13.775,2.35,1.85,2.75,19.225,15.45,1.95,6.8,827.0,127.0,112.0,174.0,1168.0,929.0,106.0,397.0,17.0,14.0,12.0,17.0,17.0,14.0,8.0,15.0,-0.43482121142622676,-0.4274428662709986,-0.18919628269610572,-0.3746910707449133,-0.0591455484825429,-0.26790979388649044,-0.25783716970851467,-0.19250052831307868,-0.23962550837574506,-0.26919866669086207,-0.1040641526084036,-0.2574235450433941,-0.18410916960731452,-0.1739453419380023,-0.003752562993543516,-0.28050595707111026,-0.3868464632802741,-0.23690955284880616,-0.25685042814702963,-0.29410048592461036,-0.184537434306235,-0.4628993397151841,-0.22285156622328503,-0.3623072431780686,-0.16081362226292023,-0.14448027176340766,-0.02663266900461823,-0.05514425342080694,-0.5117811546929902,-0.6717353921330337,-0.40910579375925327,-0.4354349592327823,1
11.3,2.25,1.25,1.975,16.65,16.125,1.7,4.35,681.0,124.0,68.0,128.0,977.0,896.0,102.0,251.0,18.0,12.0,9.0,15.0,15.0,15.0,14.0,12.0,-0.37260435918053686,-0.31656243574068077,-0.2249779156553787,-0.4438533411645156,0.011155592686074804,-0.1843743915821565,-0.2942406819252824,-0.15102777349749213,-0.0479872694555912,-0.1148612490766379,-0.1554595036358878,-0.1955561428776864,-0.33168237688532515,-0.28020079328232833,-0.21331123796233845,-0.184767458349979,-0.3752408295155654,-0.37836665911864276,-0.20210617067701872,-0.2508760191229371,-0.29095870852575745,-0.5294257045177532,-0.43362963224636686,-0.29231117168672394,-0.38122609806122476,-0.5441420125449489,-0.17309208620431318,-0.3587671489633312,-0.22338602182981876,-0.46126890106647556,-0.1743137053672847,-0.45328133162365153,1
9.225,2.575,1.975,3.1,13.6,10.525,1.95,3.85,565.0,142.0,114.0,191.0,798.0,634.0,115.0,249.0,19.0,13.0,9.0,17.0,14.0,15.0,10.0,18.0,-0.5424014854379703,-0.5610635928751456,-0.11035579671842835,-0.11611660223167489,-0.32629736519339825,-0.3077558462386722,-0.2521297071962759,-0.00040994138590565935,-0.5559012964219705,-0.44177401906413827,-0.4927559402233846,-0.3512703685658473,-0.45512255422531317,-0.4178610743939033,-0.19616398145923347,-0.17552387734324867,-0.3380696810467906,-0.2395797463016765,-0.04276865213251388,0.014336723970401416,-0.42700383836450245,-0.5000615168224536,-0.5263287550712022,-0.11228090117559551,-0.33410401309023413,-0.3516392445880595,-0.08803115223498871,-0.0004920757539369548,-0.4539478901780216,-0.11942352065406481,-0.04605910829347434,-0.1594055372362894,1
12.225,2.875,2.45,4.225,15.575,12.575,1.95,3.825,847.0,194.0,156.0,283.0,974.0,829.0,112.0,249.0,17.0,18.0,15.0,16.0,18.0,15.0,16.0,13.0,-0.6951036922005406,-0.6044137011657416,-0.3031310127120994,-0.2762783543774939,-0.5998909427751102,-0.47681734303475287,-0.20904172031738966,-0.08705354811031167,-0.6241989681549903,-0.5208297530936553,-0.4133592227736194,-0.1823671047235731,-0.5405968833797775,-0.36942548368121997,-0.10946895206918886,-0.13358730158447726,-0.4179882061701932,-0.18265829946152723,-0.44769960185751767,-0.3697075056955613,-0.5522620769880926,-0.5189999845574484,-0.5712832988278924,-0.463782250367646,-0.21275287936749093,-0.26958464953670946,0.06672590324968737,-0.01698703475029207,-0.4919357845935195,-0.39802469379485794,-0.12640551890989313,-0.2047802599315038,1
9.25,1.975,2.1,3.35,13.95,11.1,1.8,3.45,555.0,111.0,121.0,211.0,766.0,679.0,112.0,235.0,15.0,11.0,12.0,16.0,18.0,14.0,18.0,16.0,-0.3058926581516624,-0.2542462509527814,-0.32784556498851736,-0.12030496412563187,-0.25903619162647623,-0.28806907341614324,-0.23408124830381488,-0.004431510523955236,-0.48645773485675053,-0.4379848704693964,-0.37285347448957284,-0.1892961205357541,-0.6930494845807105,-0.571415289250286,-0.49574945961041156,-0.323930594347074,-0.22702197337073776,-0.20373119218665406,-0.4212962106135724,0.036373697268514915,-0.23506837516650528,-0.7662105168128612,-0.3395280609405102,-0.35342488384764503,-0.4256964845741676,-0.3427927479571892,0.00575173027348417,0.08667359074597066,-0.47869858273845217,-0.23869147587349235,-0.14391543587567956,-0.09058525428493285,1
8.9,2.35,1.825,2.5,14.05,13.0,2.0,3.875,600.0,127.0,95.0,139.0,803.0,704.0,124.0,214.0,16.0,16.0,14.0,15.0,14.0,14.0,17.0,11.0,-0.6344309143812255,-0.4281050932091844,-0.4657546487298346,-0.3263839529767034,-0.36369865579384203,-0.4713978406352338,-0.4916703833629468,-0.23001875607998673,-0.2885844937833862,-0.28344958219874344,-0.2913716993806161,-0.06717530859649663,-0.43910689444481793,-0.34956101224561853,-0.6037125757798313,-0.1510801028643734,-0.43860466432762324,-0.3656976263025562,-0.48705650700329894,-0.2771557422232524,-0.427435449306862,-0.47346958464957206,-0.539222532160908,-0.4416838656819954,-0.20834721027797112,0.0788288227799099,-0.0943987369354137,-0.311306743337233,-0.1703498460576253,-0.09349976232119728,-0.0722892140112999,-0.11053638339805444,1
10.7,2.9,1.675,2.775,13.85,11.025,1.825,3.9,707.0,177.0,109.0,173.0,900.0,622.0,93.0,240.0,14.0,14.0,12.0,16.0,18.0,20.0,10.0,15.0,-0.5768835792175885,-0.5987112911789341,-0.4722723894931,-0.43845795098112805,-0.5605652338632816,-0.34623610717166414,-0.48492389570030636,-0.396435624115825,-0.5993375538737596,-0.5211686433751899,-0.5051638530885061,-0.35919455485200946,-0.4461906761657454,-0.21128432756336715,-0.5921965003449458,-0.30408706472804314,-0.345626560029385,-0.2485968753944324,-0.23479632216524163,-0.20761699797566108,-0.2575919752023167,-0.16713507681219866,-0.10376562605348935,-0.24135548586111544,0.30197159862011647,-0.22809604861170685,-0.11864121441283482,0.02425474827062666,-0.4105074757443286,-0.2759323930054999,-0.39693275221086977,-0.39856971150551057,1
9.55,2.15,1.575,2.75,18.325,12.525,1.425,3.55,657.0,134.0,101.0,165.0,1233.0,792.0,79.0,223.0,19.0,13.0,13.0,14.0,15.0,16.0,10.0,16.0,-0.37540593468602607,-0.2645535323508254,0.0861782499229173,-0.3084449275348973,-0.3811060526853896,-0.33379644892840477,-0.09433966206856013,-0.11450329790631676,-0.18870233304521933,-0.3025744707662787,-0.14573652086536762,0.027116637692542144,-0.336490286208377,-0.2925400375848551,-0.17171520879965438,0.04230909103286802,-0.33531987644743005,-0.59547479366509,-0.04089322136346311,-0.22548929288421832,-0.6658974610840654,-0.7744391962481557,-0.4401372472218056,-0.38104117848405333,0.14045648071402303,-0.22192304313978425,-0.11559501893811062,-0.13817202498728265,-0.27432417400189085,-0.14138530448061856,-0.22740420139028103,-0.4732017173794221,1
9.125,2.05,2.125,3.4,22.85,10.525,1.9,5.3,628.0,108.0,118.0,215.0,1545.0,674.0,99.0,299.0,19.0,13.0,13.0,14.0,23.0,16.0,11.0,14.0,-0.5841295896734727,-0.5077775510018401,-0.21689208833791995,-0.22627070005567507,-0.0813486127115574,-0.3592501889565126,0.04823246306969402,-0.0707206003130457,-0.0863486948416557,-0.26621953494530187,0.07835041676136642,-0.3835936884432267,-0.27153464501150376,-0.16565184991008813,-0.041705381506890175,-0.3659273164515505,-0.6037011881151494,-0.3816860787191708,-0.22992962351556318,-0.21927325843106996,-0.4119857881546213,-0.07807278651059997,-0.23092411495253895,-0.322408895159944,-0.18895525252006865,0.12198907643818045,-0.17433195031773227,-0.41253253353208885,-0.0217458031029439,-0.2727226896028034,0.040936362062927695,-0.26129302451603176,1
9.3,2.95,2.25,2.75,16.0,13.625,1.9,5.2,605.0,179.0,144.0,185.0,957.0,880.0,116.0,329.0,15.0,17.0,11.0,20.0,15.0,15.0,14.0,12.0,-0.42141313533121944,-0.18669032916419537,-0.19085730460623887,-0.4684197434707295,-0.6063027661456354,-0.3632763779321094,-0.386531442193446,-0.2989340016973417,-0.6709613927806495,-0.2508387481480904,-0.08293993402413397,-0.07850508384563286,-0.3491504047936518,0.038049672522482675,0.1404196162355465,-0.29003242598348244,-0.532320832745486,-0.48045187909426806,-0.2868675653385317,-0.11418392521975342,-0.35459328519537353,-0.24930873001010562,-0.0929624619120107,0.028332577912553586,-0.25781876147474586,-0.2737217737535829,-0.3421819596642254,-0.3129496643201132,-0.41030538659441623,-0.30088124253521586,-0.42381747837386985,-0.16659463544865097,1
9.425,2.85,1.7,2.35,15.8,14.15,1.775,4.2,593.0,162.0,88.0,146.0,977.0,867.0,111.0,248.0,17.0,14.0,11.0,16.0,19.0,14.0,14.0,13.0,-0.4238150696482811,-0.45275233916825997,-0.33003984245693196,-0.2267914886663632,-0.4386256106567301,-0.36850452074931467,-0.29873494826111524,-0.17487731622380798,-0.20417723975618468,-0.10130578317728076,-0.11808043665586913,-0.07744899250455206,-0.3381105586052483,-0.10146729605219439,-0.3447416598964714,-0.3389549025559247,-0.5338621857616246,-0.22481901417309327,-0.22454735909146364,-0.13739638939859736,-0.5253041465954049,-0.5585604307685628,-0.4251112285745548,-0.5640951513810437,-0.33329652936871557,-0.28425769942530626,-0.06113540191941879,-0.35415940287279835,-0.3854589469852617,-0.5090624234761997,-0.3184767409713729,-0.3695419880484469,1
10.225,2.725,1.85,2.425,13.525,15.1,1.725,5.25,693.0,160.0,93.0,151.0,808.0,789.0,99.0,345.0,16.0,15.0,10.0,9.0,16.0,14.0,13.0,17.0,-0.714818661726394,-0.722701147838418,-0.3502223296569257,-0.3426789025655879,-0.715534558908325,-0.6762933250355673,-0.3833332885683821,-0.35136058270136855,-0.3921136288484471,-0.515904294030849,-0.4633532258705984,-0.532376069219194,-0.2679690406292258,-0.5638061265814612,-0.295399933565576,-0.47145102948298306,-0.5517206616951663,-0.4715351434764887,-0.5282102657589125,-0.28598794459868543,-0.407381199596497,-0.5016303530689117,-0.46329917868423776,-0.58568624099885,-0.05020289959118864,-0.07053956864675044,-0.027209666161685415,-0.3431677020970393,-0.4171812120676647,-0.09341550938703258,-0.27417618500415253,-0.28710480092653334,1
11.45,3.75,2.725,3.925,17.25,18.35,2.75,7.85,731.0,211.0,174.0,235.0,1047.0,1125.0,146.0,492.0,16.0,14.0,17.0,15.0,15.0,18.0,13.0,19.0,-0.42019539357960595,-0.3431426250248647,-0.3168025717136493,-0.40756978252766485,-0.3084412959227786,-0.2565052744584503,-0.5608963822230076,-0.35336128127193944,-0.5511061304351245,-0.48462468296942113,-0.4464992839028251,-0.39942203033939866,-0.2581469143050676,-0.35189879709529437,-0.23414985850493145,-0.35223619881605056,-0.3329377950283799,-0.36338435889992077,-0.28747261441996413,-0.39228561181132626,-0.3163065973281152,-0.5931388510276293,-0.24114897760336568,-0.6673711408168448,-0.1771724019970579,-0.08118089575967563,-0.31269874819631477,-0.20556073076503967,-0.3240074344463269,0.1274412364001694,-0.4048624392995206,-0.5222137586185409,1
8.85,3.175,2.425,3.7,19.8,15.7,1.975,5.05,579.0,198.0,137.0,203.0,1268.0,903.0,117.0,342.0,18.0,18.0,12.0,15.0,15.0,14.0,11.0,16.0,-0.4370165904208616,-0.12952715844932353,-0.2869281977810657,-0.14438734538099626,-0.42495728262049587,-0.3686243281810251,-0.21571262462234642,-0.2372657892919997,-0.39103848917757,-0.530709110306978,-0.3085228663382411,-0.23372284805653193,-0.2803887723799597,-0.29079972834201506,-0.14348777557199,-0.18037889285797254,-0.5217537076329066,-0.5121196231095021,-0.4682475400470892,-0.29374805079590577,-0.17276185809731007,-0.4751234555977834,-0.3350301179396256,-0.24816727215857495,-0.19233976560998287,0.002192414039066589,-0.09227938846337412,-0.34455625963651526,-0.26468786795088295,-0.1444579820388805,-0.3589550751361023,-0.11020170191322808,1
11.625,3.975,2.75,3.6,20.725,16.7,1.925,5.075,665.0,267.0,165.0,201.0,1313.0,1036.0,117.0,338.0,14.0,16.0,18.0,12.0,18.0,15.0,12.0,17.0,-0.6261188224220563,-0.5872990294764553,-0.531338395726988,-0.3314038990945025,-0.6781985181014585,-0.6474364086631306,-0.2799448252557849,-0.3330295006034644,-0.4235806933919584,-0.10589972061562684,-0.19287044803693423,-0.18755131317859547,-0.38113410136203013,-0.16034333217229327,-0.3493173923754777,-0.33731471367493693,-0.39504072599610013,-0.1510138677667825,-0.25301733725487857,-0.1992386573370793,-0.4781148489150859,-0.2954795835639135,-0.47518285843108,-0.4216833237258269,-0.3091699995861352,-0.12201504097093502,-0.5330862226683608,-0.06533293801015784,-0.32473849912468766,-0.10898702922045753,-0.44497509431579835,-0.1829835233785855,1
13.525,8.025,3.5,4.925,20.7,18.775,2.475,8.05,732.0,548.0,191.0,239.0,1342.0,1076.0,143.0,480.0,12.0,20.0,14.0,8.0,23.0,17.0,11.0,16.0,-0.1301003238317002,-0.40933285846259826,-0.24662035494478077,-0.14948483313498295,-0.8287194870281394,-0.45505429917851026,-0.6449912567451127,-0.5403762525372964,-0.30121638512332205,-0.004231653181407531,-0.5355336775443237,-0.43350203517914143,-0.1755856998290485,-0.1003218471170084,-0.5260256944023968,-0.40028174503731834,-0.433256823215999,-0.25982983589262176,-0.35414215425475204,-0.224057265254065,-0.27759050319385176,-0.308811979387535,-0.41117986370188325,-0.2829198481806316,-0.036497384694854106,-0.0029588137952171203,-0.19517019840519415,-0.08089202198099067,-0.2954748942210662,-0.3077909419610086,-0.1923691098061544,-0.0790814025768303,1
15.3,7.0,3.2,5.225,27.025,22.575,2.425,6.7,928.0,451.0,166.0,294.0,1833.0,1323.0,139.0,398.0,17.0,17.0,11.0,14.0,20.0,14.0,12.0,19.0,-0.45642255999873327,-0.3155561047474871,-0.15113623074858218,-0.3225393669130086,-0.758945421729192,-0.3720147600722762,-0.32074460171684355,-0.36916731191489854,-0.20873816499984113,-0.04181291563939827,-0.32967226352254886,-0.32159710653017104,-0.2847000241401697,-0.16978110174810046,-0.31788264155410123,-0.38081091047891247,-0.5683294157257194,-0.3192451750253553,-0.2225695265013021,-0.38021260275509333,-0.21308911351635743,-0.1768064882693734,-0.07090754686902369,-0.45261112624778954,-0.1165725168171,-0.4209115286377494,-0.12080640337885763,-0.1668315962441937,-0.36350517358047146,-0.2435886978533619,0.03286880484562355,0.11677359265237384,1
19.6,6.675,2.725,4.0,22.25,21.35,3.075,7.725,1229.0,411.0,158.0,259.0,1470.0,1312.0,204.0,392.0,16.0,12.0,14.0,13.0,19.0,19.0,13.0,14.0,-0.433092703278218,-0.38201941655668853,-0.36086479179986114,-0.2508884585735203,-0.6809278003263729,-0.6809124437112033,-0.5567385216985622,-0.3610648629257227,-0.4450448842660748,-0.7061918118073881,-0.3492292488533913,-0.3854760232036859,-0.3559559910975269,-0.6001934037850839,-0.12250525860099626,-0.29595318228375067,-0.4175827088709513,-0.3194242286206553,-0.037894637267614634,-0.24363621500421512,-0.4388024414209365,-0.5243755643326803,-0.33829218545429135,-0.31740665307417426,-0.22463906429714992,0.16979954454756785,-0.2250761489974025,-0.16023458788421469,-0.21471818515747032,-0.4860278271535871,-0.24475655743944763,-0.44089194111278296,1
18.25,5.25,3.425,3.625,24.95,27.85,3.35,7.775,1155.0,302.0,198.0,247.0,1498.0,1706.0,204.0,478.0,15.0,15.0,16.0,17.0,16.0,16.0,13.0,20.0,-0.3592015051223122,-0.21576237183801592,-0.3160635802131208,-0.20649787193545363,-0.319410197068164,-0.27024936218280476,-0.37000316513776466,-0.11971154554080439,-0.37039356059186596,-0.5930781895405852,-0.3429231447958851,-0.46458644378212166,-0.5552891362440954,-0.5628361581195678,-0.4190357482220216,-0.49298350887880754,-0.3426672203100841,-0.31491080351766454,-0.3108127686016435,-0.2052281092789833,-0.43527562110360074,-0.3768787725954005,-0.45167921522950377,-0.3083863763947692,-0.21377371481088583,-0.17513669264023743,-0.17396577863655718,0.20776280454305326,-0.1807340614771657,-0.3303726963114577,0.023067948846604257,-0.3758019154409921,1
13.1,4.5,3.25,3.825,19.275,21.225,2.325,6.575,911.0,280.0,183.0,257.0,1166.0,1067.0,137.0,445.0,18.0,18.0,16.0,15.0,12.0,14.0,17.0,16.0,-0.433968704698022,-0.2509990871382563,-0.1908693279909316,-0.32814146599539273,-0.40135886963734585,-0.3553945397650764,-0.2783646596177708,-0.48795854560116636,-0.24994206415350725,-0.11587038169115009,-0.33458172608522563,-0.3571162515102896,-0.2633101232934687,-0.22565129243790863,-0.04394240890447726,-0.43399426919726997,-0.13457037564992813,-0.3575620028882856,-0.24734819020285373,-0.3673799341290483,-0.1295379140671533,-0.3061212190518875,-0.32628065793916844,-0.47902892182909823,-0.2685992046900337,-0.0027423133652439455,-0.012095146407062517,0.21586058969192348,-0.6691917131408861,-0.14389506600193852,-0.067316140107306,-0.14499519493613772,1
11.325,3.725,3.4,4.2,26.825,24.45,3.475,6.325,664.0,241.0,211.0,263.0,1471.0,1473.0,206.0,380.0,13.0,17.0,15.0,19.0,15.0,15.0,19.0,15.0,-0.26610401825944263,-0.09440415024118365,-0.2477352957809039,-0.2565430260533266,-0.314796772131894,-0.2672234564619954,-0.15915458668785984,-0.4667080613791736,-0.2289962355835671,-0.30825695592173996,-0.0747346190984734,-0.44522815734143323,-0.23776522317339632,-0.4019962828423841,-0.046705597222604235,-0.4585958209692357,-0.4575722146798603,-0.4354013840541331,-0.43181233654611567,-0.3115850963424474,-0.34831522946253224,-0.3836156564837635,-0.2712918523156607,-0.38030814814784686,-0.5153697187699596,-0.23414942793617588,-0.6228305457556016,-0.5208689739730722,-0.15713714909807902,-0.06351369010705642,-0.25996465283615566,-0.27529827546988384,1
