0,1,2,3,4,5,6,7,8,9,10,11,12,13,14,15,16,17,18,19,20,21,22,23,24,25,26,27,28,29,30,31,32,33,34,35,36,37,38,39,40,41,42,43,44,45,46,47,48,49,50,51,52,53,54,55,Gesture
15.225,6.75,3.975,12.35,14.225,21.125,10.725,12.125,1057.0,437.0,262.0,861.0,895.0,1377.0,634.0,726.0,20.0,13.0,17.0,15.0,22.0,19.0,17.0,21.0,-0.49644974834997707,-0.20143416699255154,-0.2197958240094886,-0.22234140369560026,-0.5736162703745934,-0.36339492440639853,-0.4579894261920603,-0.47005627229134506,-0.4781419911788418,-0.25401414829131813,-0.17453761323927755,-0.1352456419193644,-0.6117326316179499,-0.38416397447104156,-0.21349891817226085,-0.28219809506217575,-0.4782139458138115,-0.292832377521382,-0.17303911930696278,-0.32002429748705274,-0.5026793720266304,-0.18884403171369918,0.10067709155169229,0.23119100581367136,-0.34571377382313895,-0.165955237399958,-0.1475822208593677,-0.15674683193946123,-0.4982943203380283,-0.23877716141524744,0.16054291759311745,0.06867913720785063,3
15.975,5.275,3.4,10.875,14.4,28.975,13.875,13.75,1078.0,328.0,193.0,704.0,816.0,1973.0,958.0,954.0,18.0,16.0,13.0,14.0,15.0,22.0,19.0,18.0,-0.6391602444655962,-0.3679326064176059,-0.21752457903369335,-0.15682890437881358,-0.3440146845828009,-0.23056832961473245,-0.02886408725420923,-0.058186155667554654,-0.2184541175724977,-0.31772927528129513,-0.013963443134856358,-0.14532251119437173,-0.4644438849697931,-0.4523311004395917,-0.13659691486477707,-0.20334477582052465,-0.20299188095701254,-0.3811526890719435,-0.13934204276290402,-0.46091133938019346,-0.6527824659546932,-0.2707948197135895,-0.3318057474690117,-0.21849347723851098,-0.5249444952952967,-0.3555381695186857,-0.3312681396665878,-0.2952648048923002,-0.7614446111599789,-0.33248560027891555,0.05093995260233808,0.08535905803548974,3
13.9,5.85,3.925,10.85,13.475,30.85,12.5,15.375,906.0,394.0,244.0,657.0,896.0,1968.0,798.0,1098.0,17.0,18.0,16.0,16.0,19.0,18.0,17.0,19.0,-0.37047680063682037,-0.20045558421785037,-0.11533416026918526,-0.22083426229931302,-0.4275141394120028,-0.3887014465950144,-0.2624884649014643,-0.3632100619361695,-0.04281060284728233,-0.2320304654657228,0.05198595930677744,-0.27888504299433864,0.013942154308723259,-0.5724395039301433,0.05477223949295246,-0.4144894236492841,-0.6090675010005465,-0.43948499249906714,-0.4556434892405763,-0.38655078665118475,-0.6014575814902497,-0.4000688008417263,-0.4421433757534421,-0.33195023671998064,-0.3262350260855707,-0.08235296872905751,0.0522010829221135,-0.1397394829909396,-0.7274121258441548,-0.2674051357111232,-0.18283335165396797,-0.06759193371475603,3
14.175,4.475,5.675,14.625,14.85,22.525,10.825,12.675,1004.0,300.0,327.0,969.0,1060.0,1229.0,596.0,762.0,19.0,18.0,12.0,18.0,21.0,13.0,18.0,17.0,-0.7309228161411433,-0.32231854787924175,-0.12131675727144806,-0.23413398252673234,-0.29531149723714833,-0.2082106694775983,-0.0940548478905887,-0.2573498428673254,-0.19912606846706835,-0.311113737871535,-0.1719387611069491,-0.14624172814540567,-0.8426031309259236,-0.8580658567934485,-0.6585532951112468,-0.4483006932601378,-0.6763414022694191,-0.4286135901376588,-0.1454368112251288,-0.16641417975987796,0.003293168649063273,-0.1662793280561853,0.13437581800716564,-0.28785141402106,0.0628437469738133,-0.1816447315722253,0.15973468185917236,-0.14343396346559664,-0.24037590184259439,-0.20444343851147148,0.049313589092896654,-0.2502170525037277,3
12.3,5.225,5.475,12.825,11.0,32.125,14.075,13.075,805.0,358.0,321.0,825.0,756.0,2058.0,869.0,707.0,20.0,20.0,14.0,21.0,22.0,18.0,20.0,15.0,-0.41980566119761487,-0.08955756520534047,-0.033263461187433604,-0.09781739193157443,-0.42627323160863073,-0.1373345384544747,0.166736418046405,-0.17014260475389495,-0.2527315464538558,-0.045693303379608315,-0.2882509356657975,-0.2806046982998714,-0.5250684562545472,-0.18399683185086574,-0.3627131850810351,-0.349975183377713,-0.5738912443885563,-0.2883973868220687,-0.22254706879002767,0.09959819110640952,-0.5030270115614638,0.001959247056948608,-0.0026768806563836193,0.00642032891955507,-0.27846433559700134,-0.27273479175789855,-0.06775900609423267,-0.16242339914120038,-0.09760858306885496,-0.17884233852302234,-0.17103064039143884,-0.14147412767366635,3
12.55,5.25,3.875,11.3,13.375,34.4,12.5,13.4,838.0,347.0,223.0,726.0,885.0,2006.0,780.0,754.0,17.0,17.0,15.0,20.0,19.0,14.0,18.0,16.0,-0.29217746498266817,-0.021360209069636198,-0.316731058286003,-0.11769170610356051,-0.217255684779029,-0.22004113064749126,-0.21004220170110335,-0.23284779057349042,-0.409775921144708,-0.5439963233508414,-0.37496113086641464,-0.35942098272125805,-0.4772989903927441,-0.35304073026543975,-0.4697532251397534,-0.08807250120542318,-0.584502527876021,-0.47478697659125624,-0.40128530190035894,-0.3407982044495713,-0.42507628050864527,-0.10206452703136885,-0.24287381947551837,-0.255391595907049,-0.3022406863754307,-0.3798972133593317,-0.16369049236162447,-0.2447832755804401,-0.14689841884746654,-0.16588041480624136,-0.2889346588213472,0.1251598025797585,3
17.3,7.85,3.975,10.625,16.775,37.5,14.275,15.85,1136.0,526.0,248.0,732.0,1137.0,2419.0,957.0,1030.0,18.0,20.0,13.0,23.0,16.0,17.0,19.0,18.0,-0.6038511314713594,-0.28897246147231365,-0.5448418455014556,-0.3076465225480373,-0.7047327065706278,-0.3894958858253247,-0.34617669385908,-0.10361713597086857,-0.2675878384365202,-0.13244102804219773,-0.2579746500292993,-0.30029170917149833,-0.5602431137352843,-0.20852202417639557,-0.31894606365708633,-0.27218406030935804,-0.5413774873073859,-0.27321130951769546,-0.02208980149331933,-0.024649192855058313,-0.6259123695626972,-0.43376447408653024,-0.4043037420283733,-0.11523903444714596,-0.42040718742213873,-0.2679764226543432,-0.24073552221330563,-0.18377227901473234,-0.33175042284401207,-0.19143035502488295,-0.05172979392818,-0.2050743205278292,3
19.05,7.2,5.25,14.0,14.75,34.4,14.45,17.55,1334.0,421.0,341.0,992.0,1023.0,2046.0,952.0,1279.0,22.0,16.0,16.0,20.0,23.0,16.0,18.0,22.0,-0.8996251079222521,-0.6573910001363704,-0.318698494348356,-0.2614789009387982,-0.2882518113719561,-0.28179409098731234,0.06643095401661002,-0.008650040372496615,-0.547277383718688,-0.43333923584197576,-0.47697581006129686,-0.5500755443742704,-0.6763009067723452,-0.45595879395978856,-0.5114455399502964,-0.49449874184213016,-0.654067549819168,-0.30762824956480406,-0.14696836377448075,-0.023257570327781037,-0.5211595681418124,-0.424268556031884,-0.5065605608939956,0.013411053074611674,-0.5023206611370619,-0.23248957116181523,-0.23674471306032185,0.022917589412867166,-0.5238851042919537,0.13466213806729108,-0.17510352400950982,-0.41972729445795015,3
13.475,6.675,4.75,16.125,15.275,38.325,11.325,14.975,858.0,403.0,325.0,1075.0,968.0,2265.0,757.0,950.0,17.0,19.0,20.0,20.0,17.0,17.0,18.0,19.0,-0.47990416692458326,-0.19497253385340527,-0.2440442014938278,-0.07606267593009768,-0.08146805910955326,0.017598712124439468,-0.3104593801907989,0.037634860906844626,-0.506947727437109,-0.26072426078805205,-0.3798307107098121,-0.2145810288035778,-0.6301232461332867,-0.3840454455841577,-0.5487844759726457,-0.3386474505227426,-0.6784172000020967,-0.5628545614215927,-0.49829230364696697,-0.41996334723112766,-0.373901219468307,-0.0968794356920468,-0.3265079682113315,-0.1491353953829805,-0.5218462629613334,-0.1194180131723249,-0.33205490964211176,-0.19341325565514295,-0.19116332625978324,-0.05339441939669561,-0.5665927572939562,-0.087655423944922,3
15.85,7.15,4.725,14.5,14.825,28.5,8.975,17.225,1149.0,492.0,343.0,998.0,876.0,1819.0,538.0,1098.0,22.0,23.0,17.0,17.0,17.0,17.0,19.0,18.0,-0.6732603463921315,-0.24616788832866807,0.100362892866513,-0.07656015715094772,-0.3162997089296881,0.3307520544978727,-0.14280798733166955,-0.40144342860640253,-0.6595326381934163,-0.3272978251413547,-0.373253130831155,-0.30323558788021404,-0.6836477638195176,-0.43504108418699655,-0.5235699281493158,-0.5170846105380343,-0.31913060456383424,-0.31737936543787015,-0.2633488641130031,-0.1632367295354568,-0.3855809149379238,-0.17225413182086172,-0.13872537081358385,-0.22278891472011417,-0.2548651468158762,-0.32260092200124596,-0.14447250512372561,0.009555043078636168,-0.35770153496813545,-0.0017982793450460252,-0.23768830666187185,-0.09326416069507622,3
18.55,7.3,4.4,12.025,18.125,34.45,11.875,16.55,1219.0,483.0,242.0,736.0,1060.0,2287.0,811.0,1100.0,18.0,17.0,16.0,20.0,15.0,17.0,18.0,18.0,-0.5648432800079363,-0.3703931004341035,-0.44757182046788757,-0.44149003021190036,-0.3522784116334467,0.04097026876640921,-0.20042914304090537,-0.2878096305390781,-0.007888192740025415,-0.3686912168457366,0.012276506616348784,-0.31082592505673295,-0.21420974897324443,-0.1718502814936562,-0.08450962855475558,-0.2603399119243679,-0.4613237811156305,-0.1555090130053302,-0.2158844678506191,-0.35946367700651366,-0.703336384621384,-0.3323977093607153,-0.3869484077310671,-0.25998645139453985,-0.5009803676318402,-0.21640566909422926,-0.28356418706330244,-0.03033943366941772,-0.3435918588114774,0.11538677713153508,-0.05369954831590795,-0.12790119346093137,3
12.925,4.8,3.925,11.85,16.9,32.55,11.575,14.525,857.0,286.0,199.0,681.0,1171.0,2178.0,679.0,941.0,22.0,14.0,14.0,18.0,19.0,16.0,20.0,19.0,-0.44400779800951795,-0.30323109586765945,-0.3093234107906982,-0.42363657824581774,-0.0613821499878565,-0.18029002153620136,-0.06012843754944009,-0.1230114526243434,-0.014326959981613244,-0.2869200953024144,-0.1415196353976815,-0.07880343316356274,-0.32491236318647077,-0.3474217527292541,-0.22945934392261502,-0.21855567691952704,-0.6546487844725835,-0.22227083539950104,0.034208289751587954,-0.06995020826692597,-0.45502815354844617,0.22801963611462142,-0.09647681951954973,-0.20281989732107575,-0.27666455669524453,-0.12579864634893714,-0.1307806900168809,-0.057253764082787435,-0.5429275567860856,-0.3202027499356437,-0.40224976266378715,-0.16370787265133305,3
13.35,7.1,4.475,12.125,16.925,25.95,16.9,13.15,808.0,404.0,271.0,719.0,1108.0,1626.0,1058.0,754.0,16.0,18.0,20.0,16.0,18.0,19.0,20.0,17.0,-0.3154403620368737,-0.29114813674294965,-0.41154182269604134,-0.12170678044707031,-0.2535281218839003,-0.3874732634741038,-0.2793085084527333,-0.2897561689422884,-0.25734090031500134,-0.16719745053161092,-0.2228770862987102,-0.05876793245782177,-0.40558759351854384,-0.36317144887462116,-0.38994837836939555,-0.3387940820168689,-0.6085671269625667,-0.4790646377510045,-0.2154887331001343,-0.4417205642706264,-0.342330645374303,0.2619915219722828,0.10224329740356622,-0.022568801289665392,-0.3206044524207378,-0.16112534164042358,-0.08871117126200362,-0.12056056554533463,-0.17615078861915615,-0.46634324503609026,0.02023216546038157,-0.16600639116210283,3
11.575,5.425,4.175,9.7,19.275,28.975,15.675,14.575,704.0,306.0,253.0,617.0,1268.0,1937.0,853.0,684.0,18.0,14.0,12.0,15.0,17.0,18.0,16.0,12.0,-0.29735850509007794,-0.32733140352607604,-0.3396667341060242,-0.07805905195097966,-0.21465102650761525,-0.5343179840113024,-0.1989491035600637,-0.1664798648118637,-0.5100951835487705,-0.43405762620313004,-0.337893671584721,-0.03785294419246349,-0.5738749510540722,-0.4226454187299727,-0.22838396349722834,-0.25118498629347114,-0.7319731698358745,-0.78235227507404,-0.2949909142700552,-0.3433650796430005,-0.4807292603980876,-0.24003672652715966,0.22722978982534264,-0.1126520432198886,-0.26712629228233004,-0.25430499324725636,-0.32662623777782945,-0.08895315648729789,0.022862380591160653,-0.5083025990149681,-0.22843792475617739,-0.26042306509351215,3
13.875,5.95,5.075,13.525,13.9,24.6,15.925,17.025,871.0,360.0,324.0,897.0,865.0,1585.0,1073.0,1000.0,15.0,15.0,18.0,17.0,18.0,17.0,19.0,19.0,-0.4231068478450827,-0.3414869812429242,-0.43887112754066876,-0.22343116477360303,-0.33623956558785734,-0.5174620567131967,-0.22907304842835313,-0.0684756143907756,-0.526676729057078,-0.33488875512918737,-0.18860703993962746,-0.2722424513263339,-0.5215590498226353,-0.32923270245296055,-0.09858957411999439,-0.31910749578865355,-0.49948130240091587,-0.46590077969863253,-0.5135785337445171,-0.38181443251466707,-0.3937554943432074,-0.17140391247247042,-0.08765728842750495,-0.25655256609665916,-0.6232457853241742,-0.37264456505772203,-0.6100908174557327,-0.4099861923482666,-0.3530673742864188,-0.2654304065414194,-0.24638027025523115,-0.38296791406990927,3
18.675,8.5,4.725,12.325,10.175,27.125,15.125,17.7,1214.0,603.0,288.0,716.0,659.0,1772.0,934.0,1148.0,21.0,23.0,16.0,16.0,21.0,17.0,18.0,21.0,-0.6352210906440323,-0.46520039579769,-0.5660635099224658,-0.4752793057952307,-0.7570723422909806,-0.517435435728865,-0.3582951216049225,-0.28475339361142843,-0.28252856617746863,-0.3458551277937866,-0.1845282727538145,-0.3374806680345644,-0.4113909100638117,-0.4452105797908763,-0.2975321665915996,-0.36945394241497914,-0.4482534870975455,-0.10175410924600622,-0.05558293778797114,0.009766158153920887,-0.14181294611155523,-0.27347118528562236,-0.0419607295840644,-0.22241263203352754,-0.5564187727336548,-0.47018530896611627,-0.32707750981446526,-0.2924941769386985,-0.5770596443971557,-0.3381455840653531,-0.3176949350937748,-0.25432069827741055,3
15.275,7.025,4.65,13.05,14.875,35.425,14.4,19.375,1021.0,453.0,283.0,818.0,995.0,2311.0,993.0,1205.0,19.0,14.0,17.0,16.0,20.0,18.0,15.0,18.0,-0.5647370036218646,-0.4982052501144519,-0.15964862941129834,-0.3208150228389812,-0.574974702008767,-0.4563623733499347,-0.27893891228932943,-0.2234144761459436,-0.4624350415135624,-0.37490480290705214,-0.24423921082072644,-0.3229552909733932,-0.6380733375744578,-0.5592272976449816,-0.32692242012938216,-0.3386345635240423,-0.4439147095671773,-0.0891004581284364,-0.12936038047261397,-0.24627004967810484,-0.48946243322885574,-0.16178290612247662,-0.20106824415287677,0.028029054351326937,-0.499553573709499,-0.304037488035934,0.05139911814029066,-0.049394465490445585,-0.3086958531647387,-0.2825318057330771,-0.1222556093621206,-0.13701945348994268,3
15.8,5.975,3.9,10.475,10.05,27.85,11.35,12.25,1092.0,376.0,208.0,685.0,636.0,1915.0,660.0,722.0,20.0,14.0,10.0,17.0,21.0,22.0,14.0,15.0,-0.7727422580484784,-0.5010033298438238,-0.44672810501780336,-0.35465520348927204,-0.2873705451198302,-0.10293287015567854,-0.26895044111482896,-0.12777069299108043,-0.2362740118706628,-0.22419904865450824,-0.46211369018942966,-0.2119116678161467,-0.43079462916710587,-0.3641727621545209,-0.2113828066866022,-0.3121829425423965,-0.4738857001991737,-0.42760372134886515,-0.1310620617391082,-0.1269538092684785,-0.42957474573192217,0.05000959530766999,-0.22445822216242878,-0.09370227185960063,-0.20580299183850173,-0.49593961292046573,-0.3000460462171121,-0.4164144093472069,-0.3383148103200397,-0.4101902359781797,-0.5082531386181668,-0.3392039822011944,3
16.625,5.85,4.6,13.65,14.8,32.0,13.375,15.0,1208.0,326.0,251.0,842.0,911.0,2009.0,757.0,985.0,22.0,12.0,13.0,19.0,16.0,19.0,15.0,18.0,-0.7545097415967407,-0.3536522700611592,-0.02491803626377207,-0.05448266735464619,-0.03039119526386148,-0.1062942067503379,-0.2556852215612349,0.15205745708519847,-0.3353126911829819,-0.6445661207242248,-0.3148634661855248,-0.4769262343752809,-0.4393715752623037,-0.4857333467532368,-0.20448808465417126,-0.3408833716248763,-0.4639696753561031,-0.11815284996272003,-0.18662119695537227,-0.20314966313351637,-0.2417268540068195,-0.23321395557488553,-0.28636662636466625,-0.09885391050228202,-0.12879847942586842,-0.06687919594341737,-0.4229120826690301,0.10384668415096501,-0.496129871556326,-0.31933751227193136,-0.2732060894792268,-0.2302315237864252,3
17.925,6.45,4.75,15.425,22.85,38.175,11.675,18.875,1197.0,386.0,296.0,986.0,1450.0,2503.0,719.0,1169.0,17.0,19.0,17.0,21.0,19.0,18.0,16.0,17.0,-0.5217731032207309,-0.22921556255418365,-0.05109005550779371,-0.2764219438787367,-0.3592657705098488,-0.03137559230485517,0.2782571678035689,0.055832983919573385,-0.2441483272183754,-0.3631028385436806,0.08700414566163062,-0.1000841597097009,-0.7236474292300022,-0.5881455173557619,-0.1567485289728022,0.10626128823993866,-0.4613029519100115,-0.3968833593046527,-0.3397770945228268,-0.2308107989265119,-0.49336590917879375,-0.4288264176512541,-0.3572383666846199,-0.4373247190627549,-0.2916747210170227,-0.11786573067344484,-0.2432146785048714,-0.186770144825122,-0.4106537280793252,-0.22918077131806416,-0.33673784383141275,-0.2992017364245409,3
13.225,9.3,4.975,14.325,19.25,28.025,12.7,16.925,878.0,624.0,280.0,945.0,1253.0,1693.0,820.0,1135.0,15.0,20.0,18.0,22.0,24.0,17.0,17.0,18.0,-0.49475048223331125,-0.27678224371384935,0.0822332442841405,-0.07522715581313347,-0.5185443916812565,-0.45933393127477623,-0.05728750407501242,-0.3697887095288798,-0.20876771713782508,-0.25696193789250954,-0.2614770213412653,-0.2192591054290384,-0.7526685225292182,-0.6332892929581697,-0.4489295007701221,-0.28036069703844885,-0.7909886853433907,-0.719494687982607,-0.5215567566293368,-0.23123370717347172,-0.33236957401616507,-0.5222268769047292,-0.1234185947597904,-0.24031859061276437,-0.46131812017486973,-0.5644690117987584,-0.05702690768345915,-0.1554048853296635,-0.4574325101605121,-0.2541817554117282,-0.18935654302766483,-0.09903741921159515,3
13.475,7.275,4.425,10.075,16.525,32.4,11.675,11.825,931.0,487.0,272.0,687.0,1094.0,2100.0,746.0,733.0,19.0,19.0,19.0,21.0,16.0,19.0,15.0,13.0,-0.39196596818193613,-0.04003184639906519,0.01987202088803389,-0.150810605534293,-0.5472815414256564,-0.2681549508615277,0.006116106824336615,0.08849161098357053,-0.3309666614830006,-0.30272519004480236,-0.29306273609828304,-0.1770794959123056,-0.7109964127641601,-0.6074999547803367,-0.3486192316223501,-0.2735163809325317,-0.40929861764879766,-0.46226219154401,-0.22289600054309164,-0.4714647295799572,-0.39013924365671665,-0.3888514422158253,-0.1620402309720467,-0.414078280453425,-0.5373490684891786,-0.189408810861733,-0.042173933113977505,0.15685094099769234,-0.12355306199796554,-0.4264926316065881,-0.018257909593666435,-0.2882245229411483,3
17.775,6.725,4.275,11.575,20.175,34.375,13.25,15.75,1262.0,463.0,252.0,725.0,1393.0,2173.0,916.0,976.0,19.0,17.0,17.0,19.0,20.0,17.0,16.0,16.0,-0.6445088790917438,-0.2564742619677874,-0.1946524126966836,-0.28367874155112005,-0.5600433306120126,-0.2681361056831917,-0.02906123085078775,-0.17650310343007916,-0.2763967745038343,-0.18818471615952684,-0.29423792815976707,-0.36043775545943907,-0.41137969288537307,-0.3728706130411509,-0.13463100716088305,-0.09053708530809565,-0.38700429866320407,-0.5738886101658595,-0.06655558714667038,-0.4530817017770196,-0.29019219292564896,0.03883993123092048,0.04256322777461085,-0.042551740097382704,-0.4551513497278918,-0.13363836189554462,0.14341123748457607,-0.1701069573731002,-0.27822183191466815,-0.09601350793964777,-0.32264774039877486,-0.44623185012743544,3
17.375,6.75,4.525,12.4,17.05,34.625,12.925,16.05,1223.0,455.0,274.0,837.0,1194.0,2388.0,716.0,983.0,20.0,20.0,14.0,18.0,23.0,21.0,14.0,15.0,-0.5895789799460679,-0.28863320083554483,-0.12286657846438907,-0.11786210186799002,-0.6897328166048685,-0.2415955819273205,-0.07831161955275638,-0.1895507147037508,-0.24357783511166897,-0.17230100667140263,-0.08570808991859621,-0.437619924613453,-0.6452598105631321,-0.31368102046244445,-0.15093327329373268,-0.14163866358432572,-0.5101804230785071,-0.054236491094566616,0.19673180801578719,-0.04305292211380296,-0.5460134033785968,-0.10577921180967424,-0.0986277515249525,-0.06120862371861711,-0.12718347935005297,-0.3234214096713635,-0.0899069828217775,-0.2651242736826962,-0.25848847060991614,-0.010461483338159947,-0.44364913418061747,-0.3207993462085173,3
14.925,6.975,3.05,6.725,16.675,33.05,13.95,14.625,932.0,436.0,185.0,398.0,1017.0,2151.0,885.0,914.0,16.0,16.0,13.0,14.0,19.0,21.0,19.0,16.0,-0.5889847914995278,-0.3620233991491087,-0.2708429534783018,-0.17933917275528652,-0.670279306368196,-0.5500521689989603,-0.3519491769909254,-0.24713373926434215,-0.22775651414873221,-0.4649144305126052,-0.1538207772870439,-0.42573565690038145,-0.26470456962352007,-0.17815931222815565,-0.2288446853859272,-0.4462129657980578,-0.33951864919418373,-0.09478751442038356,0.3280234551072728,0.004465234755790889,-0.38455095284468604,-0.06074724408718567,0.03831450259193142,-0.004370902221956275,-0.46209419405469127,-0.2563590676586483,-0.4049520610077372,-0.2782050315524074,-0.2987004499503912,-0.02496319714539191,-0.3009989032884473,-0.4398173460777011,3
14.0,4.475,4.225,13.4,13.0,31.275,15.075,16.075,840.0,268.0,228.0,904.0,780.0,1958.0,1061.0,1080.0,15.0,18.0,15.0,21.0,20.0,19.0,23.0,20.0,-0.4028156103015127,-0.2802975692775016,-0.1684577859354029,-0.10004453958157977,-0.43810140252431895,-0.43413357111573214,-0.26533557795847373,-0.1464191349000265,0.032183572846818435,-0.361187377459897,0.022449433855989284,-0.35906711927095825,-0.5431250640320632,-0.3705551193449525,-0.32773064400647267,-0.4354763667378246,-0.3918376625748034,-0.2231275456716435,-0.09719369200604502,-0.3231044205215727,-0.4770809855835137,-0.10090141140350428,-0.19883411280255664,-0.18165312526658126,-0.4939090612170507,0.10680849749927082,-0.32847703483316415,-0.4584586248205229,-0.6823172123268039,-0.160097785160276,0.24762526860792514,0.17055102834574795,3
14.275,6.55,4.275,13.65,15.125,31.8,16.25,13.95,948.0,456.0,251.0,867.0,1090.0,2057.0,983.0,837.0,20.0,17.0,19.0,18.0,19.0,19.0,18.0,16.0,-0.5539409651039047,0.024028169570741033,0.0163534113369822,-0.11639921654131906,-0.6427071221990013,-0.36910686242777135,-0.3595016521675942,-0.28991170539057626,-0.3429358580158802,-0.3754250715243017,-0.23507193228031537,-0.2695702217071929,-0.5422379000254726,-0.40490098988885553,-0.41186748561735226,-0.2941663545673383,-0.8192340919159259,-0.38619224146372444,-0.3988670746722223,-0.47032755983799945,-0.5254032143236292,-0.2202879849989886,-0.2401660484329343,-0.37712776858739516,-0.45582117674424305,-0.29960290191904715,-0.1426963382487476,-0.2270074670204446,-0.3627312328428312,-0.22607250153031336,-0.09872853051335315,-0.03382023817983498,3
15.55,7.5,3.0,8.825,15.1,34.425,14.775,15.0,1016.0,488.0,163.0,585.0,1035.0,2090.0,1015.0,950.0,15.0,17.0,14.0,18.0,21.0,15.0,17.0,17.0,-0.644585169653235,-0.08080111673443757,0.0964872202288562,-0.04637992454384617,-0.6688627846097164,-0.5194383767718612,-0.3419340388553086,-0.32469463509199825,-0.15685688168488918,-0.2209404867459986,-0.2650066634200606,-0.23810434895813307,-0.4752539877107278,-0.18288058036557428,-0.07711799138737258,-0.06727428554813562,-0.6138831893635408,-0.1896713825140331,-0.28843096430536025,-0.2808430533091096,-0.35772565680797547,-0.1916624761621129,-0.18603491963330412,-0.38952843938805953,-0.5101322053843955,-0.19232917678316724,-0.04507710420741217,-0.1683743723799043,-0.38286371463262286,-0.35484395784245143,-0.11429738454005267,0.06411831167687974,3
15.275,6.175,3.45,11.175,18.825,37.475,14.575,12.025,1076.0,411.0,224.0,771.0,1236.0,2405.0,953.0,811.0,16.0,16.0,16.0,16.0,21.0,18.0,15.0,24.0,-0.8210123710479891,-0.4213587522606094,-0.35825754408846644,-0.24536123995376732,-0.4381215593480385,-0.24231444101955302,-0.14389135328609412,-0.18946016733479584,-0.5505963842733382,-0.4118032881533335,-0.22211199144312357,-0.18650629458911094,-0.7116789206849089,-0.35548219268342074,-0.0037482034974960954,0.034019686502594154,-0.7823717282662508,-0.6568613571057986,-0.7077697262672149,-0.3165716587924817,-0.6703171589374612,-0.4241212807159434,-0.461209011543338,-0.35389130769786736,-0.4084842036070818,-0.09076405022015355,-0.17872059705619583,-0.28774763622411237,-0.4594688289784117,-0.3239045706233803,-0.07330952080185565,0.16295345257448804,3
16.6,5.775,4.025,13.375,18.375,29.875,11.65,11.825,1052.0,378.0,266.0,891.0,1185.0,1792.0,742.0,795.0,18.0,15.0,19.0,17.0,18.0,16.0,18.0,15.0,-0.7323121571171304,-0.5688909409544811,-0.5234542793919259,-0.25884944607002014,-0.49135978220922377,-0.35050187775003666,-0.32239462643356653,-0.07738039550365114,-0.5449492525697818,-0.4460426212173522,-0.19888276202859922,-0.2022808156497269,-0.719370687756087,-0.6862139627166601,-0.38324697109140454,-0.3388594227088077,-0.7502247815774571,-0.541780625061871,-0.49097420844587547,-0.21592022185368145,-0.3243728884802058,-0.4345848108067457,-0.14159978524795294,-0.19661272895561233,-0.30629328626830893,-0.20518443555079793,-0.019890760718926086,-0.008010629440633391,-0.3637429754683614,-0.15539232425873123,0.05655133562940715,-0.31189702986179885,3
18.325,4.7,5.15,15.375,15.425,28.05,12.825,14.775,1264.0,251.0,283.0,951.0,1056.0,1540.0,798.0,984.0,25.0,13.0,15.0,17.0,14.0,16.0,16.0,19.0,-0.9161660116494638,-0.6651725466024138,-0.47033579563604644,-0.21468932259167434,-0.1373659717376677,-0.08082774516691792,-0.20749925054776966,-0.07723322478301992,-0.11718159861805831,-0.32414110874567703,-0.10279140495882756,-0.09777759420430054,-0.48417731405538955,-0.5417789469995382,-0.3769480335154262,-0.2927304992513961,-0.44316649309336886,-0.18735577994817398,-0.09306665832817436,-0.00012776037155828285,-0.12224466269721236,-0.1565064702156646,-0.17913409235400854,-0.014623978836356733,-0.4189790272492953,-0.11346666789862074,-0.05174802287904044,-0.10633127577871669,-0.4458393900909412,-0.17637696058592045,0.009594202144222458,-0.13972657340263192,3
18.575,4.975,4.425,13.925,12.725,19.025,10.725,14.325,1247.0,343.0,276.0,866.0,897.0,1145.0,614.0,901.0,19.0,18.0,16.0,14.0,19.0,19.0,13.0,17.0,-0.3830721250973729,-0.11945183577739493,0.028854475758809624,0.07815087754920386,-0.6289681366932343,-0.1343192176203001,0.2790882058556174,0.16054228099622567,-0.28502577255589684,-0.2082229631449306,-0.045151374132962545,0.1590842999598983,-0.3756570893703333,-0.4582107535465945,-0.1825932158045267,0.013617462510448819,-0.43709244295598787,0.1043442922432559,0.15197358637777564,-0.09022761703170282,-0.12456996324381027,0.16321194868425704,-0.12299500173698912,-0.1592847478871947,-0.32109496406756854,-0.22793598969991138,-0.3560561376548814,-0.346927499801224,-0.5110364318630268,-0.5330745739635643,-0.3633960410733839,-0.47275866666890015,3
18.3,5.775,3.3,8.925,11.725,28.425,11.375,10.875,1176.0,380.0,178.0,502.0,797.0,1936.0,714.0,701.0,16.0,16.0,10.0,12.0,17.0,23.0,17.0,14.0,-0.38822530817771617,-0.22767223799110128,-0.038943917519154124,-0.13637482656952934,-0.49620690006840906,-0.29739208788993843,-0.4537870043549124,-0.3901252503682869,-0.01122425453245323,-0.16511241639441093,-0.3363879305447439,-0.19899695038158766,-0.16015440650330226,-0.4947660853333429,-0.3787318352025293,-0.24898623627894573,-0.808066969512166,-0.7597165797700327,-0.6216140240369898,-0.42870501462254956,-0.5760264380723769,-0.28812270244211813,-0.22407744417114944,-0.34592551295349316,-0.3708817722320159,-0.07667749397590319,-0.3280334414809488,-0.2701311314023318,-0.27453859105018524,-0.15617317784435478,-0.272026942956794,-0.30937555933185307,3
17.6,5.325,3.4,10.175,10.35,28.85,10.525,13.025,1228.0,315.0,191.0,720.0,714.0,1598.0,606.0,774.0,18.0,16.0,15.0,21.0,20.0,13.0,15.0,16.0,-0.561440969486086,-0.40597107469222576,-0.34657682116228583,-0.2537732617471323,-0.35408035585577446,-0.32113408171202856,-0.0698227817777243,-0.244953650680049,-0.35890090552797316,-0.24169972855646393,0.009334059704332914,-0.16774743472776116,-0.6343940221597139,-0.2397750829307194,-0.26160098446827496,-0.13089005148526833,-0.5151443395733385,-0.28561234087734044,-0.1842899379242008,-0.16059167196724403,-0.20557589123614614,-0.14893729865866473,0.03005715270676739,-0.18915748346390668,-0.0748126011345905,-0.21810946765942182,0.007654739332061108,-0.2104071900784633,-0.1598543526179903,-0.1290475750747291,-0.18593630885075024,-0.29455031544923416,3
13.375,6.075,3.475,8.925,13.7,33.05,12.7,11.4,817.0,376.0,199.0,590.0,832.0,1971.0,803.0,638.0,15.0,15.0,17.0,19.0,17.0,16.0,22.0,14.0,-0.3753130351064921,-0.5555127135291812,-0.33373087119588635,-0.4473050324557752,-0.292198319618993,-0.33444865266810153,-0.15362582861287666,-0.42690034010440286,-0.26985367096036805,-0.0625727364056717,-0.16820081663179856,-0.2803338608019159,-0.5029576250635284,-0.23311870321991668,-0.29360587955064055,-0.204342978560463,-0.3143732970708969,-0.5772074718862961,-0.2225965330324605,-0.6115974931831483,-0.3358937224719574,-0.33063410041176017,-0.12401297662899058,-0.3651922153158827,-0.2961315502996177,-0.28662089951263275,-0.23591155675317999,-0.46619635616671673,-0.13633011881294174,-0.11286440697081326,-0.017199056124511645,-0.24800609544193486,3
14.2,6.45,4.375,9.875,12.425,27.1,11.95,15.475,937.0,392.0,228.0,591.0,830.0,1751.0,739.0,1055.0,17.0,18.0,14.0,18.0,19.0,21.0,19.0,19.0,-0.5742244082849527,-0.4255796651516899,-0.17002281012372092,-0.1537481940487378,-0.22417279265425616,-0.21008571996413206,-0.1629534668223357,-0.22256823826225164,-0.24519871981558267,-0.27471785212457983,-0.31013878546041457,-0.24280906574682679,-0.5409026599522735,-0.29529750442009967,-0.4914740618941493,-0.4477480756097437,-0.6313916836879274,-0.4906820397662215,-0.015595540617939425,-0.21352409718695356,-0.6276784703069217,-0.7134502471005153,-0.35731678349311385,-0.3532602007525378,-0.35442628447115493,-0.4707931651761251,-0.18075607764893545,-0.16716239896705098,-0.5602997868275248,-0.30825692108402347,-0.3546201746379128,-0.28043338188970296,3
14.2,4.9,3.125,10.225,8.825,21.85,10.95,12.575,966.0,287.0,210.0,681.0,594.0,1349.0,647.0,791.0,21.0,14.0,16.0,19.0,20.0,17.0,15.0,16.0,-0.5061313575593364,-0.052934827105894644,-0.3387733446311668,-0.29710060919853104,0.12398738909967655,-0.16577992611891432,-0.03309458318427489,0.12730492470869426,-0.3008632474534048,-0.24576298673887395,-0.20611060779635035,-0.23057768965455316,-0.8035017687851228,-0.5502694684156632,-0.6406142193798051,-0.5357929122923488,-0.4477334750661881,-0.2435137110327993,-0.2092665918720879,-0.35624792572412656,-0.24649947363161753,-0.15120024030874277,0.0129363378017382,-0.23229890808054815,-0.3544669267984388,-0.0888975521738249,-0.27250022042657823,-0.36349343549475666,-0.31274952970327313,-0.0679319270212697,-0.32205714470494157,-0.022517745672706136,3
12.9,4.925,3.925,9.975,12.775,25.3,10.825,9.275,913.0,303.0,256.0,647.0,914.0,1649.0,660.0,628.0,20.0,18.0,16.0,20.0,24.0,17.0,19.0,20.0,-0.39611695421760534,0.21368217094619094,0.17950865014724987,-0.029371718271844396,-0.192302304376198,-0.20022845506168427,0.1316592517936707,-0.1980611676277012,-0.6287419891221848,-0.40054320093690926,-0.6024310298784361,-0.25027541638914697,-0.6092736594667404,-0.3630196825614822,-0.4457547344612387,-0.3363424754298384,-0.7200965470742147,-0.36654622159560485,-0.21529453253961175,-0.2585256379898503,-0.6471769832197615,-0.34849589864471553,-0.07725271052719894,0.1261493387571054,-0.41548158514356504,-0.21285270329287753,-0.34387954288974315,-0.37990350957877317,-0.43891887859313333,-0.174872069884893,-0.3224770024268521,-0.44705544302413436,3
14.125,5.525,3.6,9.775,14.05,27.25,7.85,8.375,973.0,340.0,218.0,665.0,996.0,1634.0,509.0,509.0,20.0,16.0,14.0,18.0,21.0,15.0,17.0,18.0,-0.6493059404637133,-0.12016972826323702,-0.005810912734637978,-0.19634931697102173,-0.2449945490769502,0.1766415497596517,-0.14783077676771633,-0.41966437545313445,-0.18097473717135212,-0.1958481741176398,-0.355275956553219,-0.014372353842968116,-0.4382313130592785,-0.28567537376913965,-0.3065095881488936,-0.014315714174103527,-0.6842790424375339,-0.13670578458230506,-0.1444223626936186,-0.22174476741290516,-0.4708614383831239,-0.36201354395314883,-0.24497367064964376,0.06670929017006641,-0.31889970451757405,-0.156230278652329,0.023728891839980414,0.0015430085720375885,-0.33448732606810955,-0.1331276786960004,-0.07706328578584291,0.03515918972060574,3
12.975,6.775,3.825,11.7,14.1,25.925,10.15,12.075,867.0,401.0,189.0,693.0,943.0,1589.0,647.0,840.0,18.0,14.0,14.0,17.0,15.0,14.0,18.0,21.0,-0.6892260928317281,-0.06618123874496128,0.04162987145570633,-0.16639333113966864,-0.41048930513160026,-0.19459949260848403,-0.23817671248132144,-0.2910189698988856,0.043326170096698285,-0.12400840790976278,-0.33168484285490624,0.09288304421248919,-0.37122962072505244,-0.2891858081439932,-0.22463852796982375,-0.08667288504783185,-0.6265228779415197,-0.7947239092841821,-0.4150436149021773,-0.41994667538406594,-0.4836630938140241,-0.337124110955703,-0.32107536378027424,-0.06684697062365688,-0.31583574512990836,-0.31693391529461273,-0.11601521056495347,-0.29921960051546437,-0.521051736360338,-0.10311469318145754,-0.04855425432158507,-0.19808907736225173,3
7.825,5.375,4.175,11.7,13.375,29.55,12.75,16.65,494.0,352.0,243.0,772.0,884.0,1670.0,818.0,1142.0,14.0,14.0,12.0,17.0,22.0,13.0,15.0,18.0,-0.22846584899384592,0.21046018404780603,0.3284637086851942,0.00773791337745889,-0.5328359159548978,-0.17794664551744532,-0.1296497528580387,-0.20689865763197102,-0.07474056632995407,0.03436819512135955,-0.1524427294617063,-0.3119591790390754,-0.3140499280303592,-0.24923120533588744,-0.17647922922880463,-0.2071614451155348,-0.5715363189358144,-0.23437050442631596,-0.10464285310538633,-0.1538716929873752,-0.4024046896819775,-0.44571044733001214,-0.4464605550057934,-0.42982966438910786,-0.49952048601470417,-0.45717853347326814,-0.37222804887442956,-0.37799506669226735,-0.8732734204891534,-0.5856954627004608,-0.3841641457436189,-0.25065815469848796,3
6.3,4.875,3.475,9.7,9.7,24.775,10.7,11.775,385.0,329.0,203.0,631.0,558.0,1556.0,639.0,660.0,13.0,23.0,17.0,24.0,16.0,16.0,16.0,18.0,-0.38078912593655734,-0.3878679712540019,-0.36550028789668554,-0.10970890650177652,-0.5323113966064704,-0.0515113407350866,-0.3703470666623775,-0.324348911551823,-0.1366089572691408,0.003612774618646039,-0.3094818455472181,-0.2905726631409481,-0.17180088996229437,-0.33943834756488184,-0.13563873918307984,-0.332454356427488,-0.24819329771296167,-0.017145649081001083,-0.030681791691640415,0.01836948342370704,-0.3824531958580538,-0.3403378764381615,-0.20643063363968206,-0.035475021244990294,-0.4417296377732579,-0.44305877064035293,-0.17152086831848234,-0.28621760670937707,-0.15634431496314544,-0.25849867538458887,-0.2373378413118777,0.026633014546157546,3
11.225,7.775,3.45,10.425,12.75,37.95,12.6,10.175,796.0,524.0,234.0,749.0,773.0,2508.0,799.0,669.0,19.0,19.0,19.0,18.0,18.0,24.0,17.0,20.0,-0.5919692056628977,-0.047293014847679594,-0.0860545003687466,-0.32726383119480257,-0.5981018856583775,-0.13376966249105143,-0.07962220908765212,-0.11423017429880475,-0.49056343736402697,-0.20037920831896436,-0.4056796191321039,-0.2597145185137191,-0.726627389191634,-0.4446335850543836,-0.6092770279102379,-0.3728241726962465,-0.34847323440845807,-0.46816142828438334,-0.090020127680505,-0.3430127939742428,-0.49882514432323743,-0.29951171368687357,-0.45252557029938695,-0.429816789768057,-0.3904261183219757,-0.08107140488338911,-0.08095982442763124,-0.013110522616817544,-0.29665517153811055,0.014130935605737001,0.07992475713047913,-0.07506401715489593,3
15.425,8.25,3.525,9.2,16.875,37.5,12.0,17.925,1097.0,584.0,235.0,649.0,1207.0,2572.0,757.0,1145.0,23.0,19.0,21.0,20.0,18.0,19.0,21.0,18.0,-0.545740041115763,0.17393939031200725,0.041156371730403894,-0.20089749303711157,-0.7878565548694775,-0.3738847798650044,-0.2785281584403794,-0.18750737956641803,-0.45180677527340934,-0.272716313110288,-0.3052118598210871,-0.05729657369541817,-0.7562881902026793,-0.3249190122127288,-0.2509339920846812,-0.3042759192500143,-0.8360604858313724,-0.44825661813612694,-0.3446663479837998,-0.17194079239440657,-0.42959866494754084,-0.20374142900720926,-0.06323621198975538,-0.12399173264508974,-0.531408792748451,-0.2009787214904406,-0.24202012380899177,-0.24459926738708185,-0.22799336492705205,0.041227925954030645,-0.016368477777447887,-0.3256517331535944,3
14.3,6.075,4.275,7.975,11.525,33.775,9.0,13.575,938.0,369.0,259.0,463.0,746.0,2287.0,528.0,784.0,15.0,16.0,17.0,15.0,18.0,20.0,17.0,20.0,-0.37125440116219144,-0.06051826933463666,-0.02109820242879608,-0.1417055140455357,-0.3348431042270048,-0.13656162614736816,-0.19510223864283707,-0.37157954671918925,-0.3891289943912787,-0.1617565104328736,0.04052879594854709,-0.10031567158528742,-0.46092905576923676,-0.3318851244207911,-0.28383137587697543,-0.2579404934273569,-0.3504011966680001,-0.5922199645976932,-0.09697689074533145,-0.41407431394989075,-0.564683243800635,-0.09915145141436597,-0.2976190298474659,-0.22583894291714923,-0.39149474168604065,-0.17333891790760977,-0.29915009514541313,-0.16241746201653115,-0.16006440802548338,-0.11367651107521667,-0.123123632617193,-0.012289381644162312,3
15.375,5.9,4.15,11.55,10.975,23.425,10.425,10.375,984.0,352.0,267.0,707.0,787.0,1367.0,603.0,602.0,18.0,15.0,16.0,16.0,20.0,16.0,13.0,14.0,-0.37291010671603947,-0.3975696748547914,-0.17374127226485603,-0.1216159290983198,-0.46905021782780315,-0.3219391105846667,-0.2132079641725343,-0.10252515337239233,-0.46235168605679017,-0.19660588172567997,-0.13122638259902883,-0.20064818265214032,-0.4919032767012172,-0.44993322611238035,-0.22026408885224844,-0.2462196946490017,-0.4743937937249349,-0.30609258585800153,-0.03910297287293343,-0.03727796891128412,0.024903901072727934,-0.20641633986769983,-0.09302847833716449,-0.44671226091747546,-0.47820836428973834,-0.4156294788084698,-0.27470420753795716,-0.1796126836795549,-0.18825919677238326,-0.04306665277289492,-0.1677671482819482,0.04873197878180615,3
14.325,5.375,4.5,11.325,12.35,26.85,10.35,15.325,1019.0,324.0,301.0,788.0,819.0,1631.0,602.0,1067.0,18.0,19.0,17.0,17.0,16.0,17.0,17.0,18.0,-0.7062607887299454,-0.07283013716857342,0.031746325435293515,-0.02167465549921785,-0.40761159912749323,0.03214985142276206,-0.13155483255738523,-0.2535739211172894,-0.3738186020937412,-0.10213475269922984,-0.015362361164535739,-0.23993781939514636,-0.6283934542714004,-0.38377653036968457,-0.40118124517591985,-0.39077568179894506,-0.5882148077865123,-0.5693439686448659,-0.47213172247592655,-0.30198173120281435,-0.3843346733492016,-0.5836455176173582,-0.359231078687673,-0.5528767664091498,-0.12873911156789608,-0.5183210228061939,-0.06972897260500856,-0.40660743229271945,-0.5460703394407578,-0.03772790608755819,0.014517159549535459,-0.036871507011604826,3
11.6,5.3,3.275,10.725,11.4,26.0,10.15,13.625,708.0,319.0,190.0,670.0,750.0,1850.0,551.0,858.0,18.0,17.0,14.0,16.0,15.0,21.0,13.0,17.0,-0.18286103198144704,-0.3527184425578587,-0.18216978574694678,-0.29218712089584326,-0.18430344994970066,-0.03295787804397452,-0.19751834462004983,-0.14132373597844247,-0.1005708633827241,-0.02863629149541726,-0.18029243334820963,-0.18311911811155798,-0.4378108796550658,-0.18139849651404222,-0.37934459337477217,-0.42480676277580487,-0.3648316297490406,-0.3153317759567028,-0.29461968330082655,-0.07757646492935255,-0.662067472969585,-0.32043495446096076,-0.1800450920755238,-0.18394680473681763,-0.01943672116537178,-0.1553146994433531,-0.07872928693931941,0.01237978176115841,-0.24074339132775546,-0.2867853929139871,-0.2913572610334967,-0.20699428150457957,3
10.8,4.725,3.85,15.175,11.05,26.375,8.9,14.65,732.0,295.0,238.0,924.0,722.0,1619.0,592.0,854.0,14.0,16.0,13.0,17.0,16.0,14.0,19.0,16.0,-0.283060045471841,-0.11182989000326059,-0.14739010860161036,-0.426476044416098,-0.316682946929981,-0.2599555469356996,-0.26219878370385863,-0.3863968370221444,-0.2552325077572329,0.0016925175920977685,-0.021372112378969826,-0.11351328761937322,-0.4087650901908487,-0.19197363761334968,-0.20771675315941274,-0.2751223917972342,-0.43729498533563466,-0.32882322625299304,-0.4181088822467688,-0.3105942204251804,-0.4056630778575462,-0.22869311615349525,-0.3074607797949549,-0.36843206182460503,-0.4730938851735941,-0.35529323774230054,-0.47389802453281965,-0.36458961218495783,-0.2941690022008256,-0.2690736385114302,-0.2775969844636289,-0.13170445791519936,3
11.25,4.325,4.175,12.425,9.9,22.375,11.15,11.7,723.0,264.0,231.0,769.0,617.0,1414.0,718.0,691.0,17.0,14.0,15.0,18.0,17.0,17.0,19.0,15.0,-0.3837535158626976,-0.20230917442029817,-0.13917720035486447,-0.3887706579936262,-0.41341487363298246,-0.11750023981623199,-0.13774491628319094,-0.1446885970696747,-0.010591599466978664,-0.21891208711484986,-0.023808788794412172,-0.4097324908314743,-0.2612851911247765,-0.05205325978454343,-0.03399198590620606,-0.16404488230980557,-0.25687054629182954,-0.3637111536649866,-0.12340748132264338,-0.33022101198284964,-0.36890158829398756,-0.32599459319387625,-0.08628896588920514,-0.06011650440289402,-0.5350080152842931,-0.39590875026018524,-0.34739165932354327,-0.2807567231885666,-0.29569752359131674,-0.2803942106269393,-0.20770651553561445,-0.039057139408829045,3
12.35,5.875,4.025,12.8,11.025,26.275,15.475,17.625,790.0,372.0,254.0,918.0,710.0,1519.0,1045.0,1128.0,18.0,18.0,16.0,20.0,17.0,13.0,20.0,20.0,-0.4692893305096329,-0.17125512060042536,-0.3710112146883463,-0.24900658914794563,-0.4380522309949832,-0.4420088436544861,-0.36183876337682913,-0.30172765291432607,-0.2198257447224767,-0.25056021348654384,-0.055039262455253035,-0.19518955922897005,-0.5986079592655451,-0.2684368110685915,-0.06730938002757388,-0.03444059975239911,-0.4406619358681728,-0.3575205303000018,-0.27034670464039834,-0.09626457791965404,-0.21059439036530955,-0.1396212215848131,-0.14974859343676436,-0.01812434249421757,-0.7130935681451602,-0.2703937053532094,0.0897785494442195,-0.023935967076413364,-0.2667191372866612,-0.336799782155308,-0.09189640183260125,-0.4828319996273526,3
10.15,6.2,4.225,10.35,10.25,30.05,13.7,17.725,698.0,423.0,251.0,669.0,629.0,1876.0,978.0,1220.0,21.0,18.0,15.0,18.0,16.0,18.0,19.0,24.0,-0.6366272765673181,-0.33767355040610125,-0.47738715573927215,-0.21672745219470832,-0.4521043882407568,-0.19821749000921302,-0.3257572482156538,-0.25383844501939934,-0.6983057773868527,-0.6733551342587221,-0.4081724912019842,-0.31024439709482177,-0.42277696163322737,0.03886924461998702,0.15598612168609532,0.0071076047613096195,-0.2591368645343159,-0.25970007810407464,0.06755457875645972,-0.07987942101802457,-0.5743739756763767,-0.4560337609409749,-0.35746068157853195,-0.15780993349328,-1.2307518781247988,-1.0190046734517817,-0.556052446219677,-0.24932771185655633,-0.5881830382458431,-0.35873312778942956,-0.08818070160587814,-0.0017500306587398134,3
12.925,6.225,3.575,8.4,13.375,31.625,7.975,16.475,936.0,410.0,225.0,602.0,917.0,1849.0,488.0,1009.0,23.0,17.0,16.0,19.0,19.0,16.0,16.0,18.0,-0.6533047428973635,-0.1623170885045436,-0.12849632517585877,-0.17180483365144678,-0.48990651523285567,-0.17808930568858522,-0.2801141163085101,-0.2969438512240035,-0.510626123522966,-0.2922804687420733,-0.021878949803348865,-0.14616090019677175,-0.7158728128996246,-0.20680434838542036,-0.35960495933622716,-0.35211433246530127,-0.7953446200010085,-0.5817580353845346,-0.5045190473590598,-0.2438076348883646,-0.4310712129950179,-0.32255860295538996,-0.24946269009664404,-0.22593528622360212,-0.4279270274415666,-0.34538621837904665,-0.09028100427116056,0.014850433671952015,-0.33182145180355954,-0.3821101778603732,-0.08064321914000121,-0.41319521461506037,3
11.55,4.925,3.8,9.125,11.25,31.925,8.725,11.25,769.0,312.0,246.0,639.0,763.0,2283.0,552.0,748.0,17.0,19.0,16.0,15.0,17.0,22.0,18.0,19.0,-0.39992243152071427,0.13015649012495764,-0.17102663861209105,-0.3260638407261805,-0.3744775851611043,-0.01620183847237073,-0.3738454536972134,-0.47463042436881864,-0.3153045050185299,-0.16583714057372018,-0.07310124640246941,-0.28656919020793714,-0.6236226504712911,-0.5863732194665566,-0.46500716320798363,-0.6599255960415803,-0.549170725681936,-0.32092214352517184,-0.22837545446736063,-0.036633077689512815,-0.6090294472546812,-0.31989829288525284,-0.08240381330160318,-0.07720507117926156,-0.47895798605465717,-0.33260315107651806,-0.42262485422100443,-0.1724429065403439,-0.4385241168850132,-0.013266234808770375,0.2989936306931673,0.04485842784164802,3
12.8,5.0,4.275,9.125,11.775,27.4,12.275,11.1,881.0,296.0,260.0,599.0,731.0,1768.0,727.0,713.0,19.0,15.0,18.0,16.0,23.0,15.0,13.0,18.0,-0.5917505291889278,-0.3535386222408644,-0.26040852911654544,-0.1395317305055129,-0.38679075988450345,-0.30405315722683185,-0.3266401265460626,-0.32681717888835526,-0.17070190416501774,-0.06958592542609772,-0.2735396879155129,-0.21132730750947432,-0.5522176276211899,-0.3632458523908622,-0.2748473172372538,-0.1701960687369295,-0.35698899960425345,-0.312594253973409,-0.13442296628143866,-0.010877204106550482,-0.29009118963332226,-0.15395613273363268,-0.15231679377602078,0.038022882477661564,-0.18125400309556736,-0.2852334164814795,-0.1486823692389136,-0.15693865114243893,-0.4191526081665327,-0.4962181275717475,-0.1894316339601916,-0.15142984746448948,3
14.55,4.025,3.6,9.875,10.575,23.575,9.575,14.825,974.0,267.0,201.0,630.0,632.0,1547.0,602.0,941.0,22.0,20.0,12.0,16.0,17.0,20.0,19.0,16.0,-0.48237985255141114,-0.19185330513837637,0.10751134565675845,0.14200641469794686,-0.3412826046274992,-0.284104442565684,-0.07526860754008564,0.1537111079479368,-0.1937489040941399,-0.16698785088454823,-0.4419981144081887,-0.09161644043068345,-0.564352445766441,-0.3460943904731702,-0.3462539966605177,-0.42258771429537784,-0.33619131193513807,-0.37166768072823453,-0.26181233334482906,-0.09195748648178745,-0.3525311276578082,0.08324727123374315,-0.02379525263232929,-0.18662416614050123,-0.41040074070993815,-0.2577150308097182,-0.13791410185594075,0.04843513126318951,-0.5059184743798931,-0.6568088922760105,-0.44273313451545193,-0.5145099560515702,3
11.25,4.375,3.025,6.475,12.3,21.1,7.8,12.125,675.0,294.0,178.0,379.0,912.0,1311.0,546.0,729.0,14.0,20.0,15.0,17.0,25.0,18.0,17.0,15.0,-0.09385225966164543,0.15180907264837742,-0.15410493918680038,-0.32041865046664114,-0.43986030396063625,-0.11646999187628942,-0.16148689754025788,-0.015815922292472476,-0.25665569908007174,-0.13794333559507846,-0.2808600798501392,-0.2167486381383577,-0.18618534543683182,-0.14204068718381693,-0.23730721504794847,-0.3535368471806513,-0.7158126710885093,-0.3453246326000537,-0.292582562099321,-0.35837392319430167,-0.24785411122062567,-0.07403536446320128,-0.2307156582327708,-0.23846043631658081,-0.41515115879570236,-0.05809646968201842,0.04898561478214611,-0.1026730186235387,-0.18716803666704143,-0.23968057707649673,-0.2139598709449246,-0.17025802400145068,3
8.8,5.5,4.0,9.675,15.4,22.55,9.25,13.025,577.0,333.0,253.0,636.0,1081.0,1461.0,467.0,853.0,17.0,19.0,17.0,21.0,23.0,19.0,16.0,16.0,-0.2474689820696651,0.06962219550040331,0.13905472881025713,-0.09690362348698278,-0.4660046935515563,-0.25822057590975367,-0.08538689348457089,0.050409800540555605,-0.5175699094013612,-0.32440098323697153,-0.142060141742035,-0.012148505074283203,-0.83736416841604,-0.6482601464879333,-0.22516572103224788,-0.03399035437364596,-0.8363401924954225,-0.31559446627913507,-0.20258098884652848,-0.06128530738336118,-0.30647684605534026,-0.008537004682528266,-0.19164517015124247,-0.15786264023272265,-0.1455424666818175,-0.18337281852904527,-0.46875021732119754,-0.24870236703885643,-0.3930742605311924,-0.21329356737694444,-0.34807622452197745,-0.13207272551356763,3
9.325,5.375,3.725,11.25,11.85,29.325,10.2,13.4,618.0,340.0,226.0,749.0,797.0,1987.0,633.0,796.0,17.0,17.0,12.0,18.0,22.0,20.0,21.0,16.0,-0.3130274968202595,-0.2653004549019038,-0.15387655796013255,-0.42667593871853077,-0.4198177826645758,-0.3656522216935683,-0.26934821415205024,-0.2223999388723472,-0.24060619346890655,-0.5380006762057367,-0.16627719265259708,-0.30280541304920966,-0.5393430237024854,-0.31642658182008776,-0.3905972460053385,-0.2184142768559019,-0.6498431449172944,-0.40205964482866935,-0.17058128235231107,0.17341058190998976,-0.6507870048395047,-0.3219655749779201,-0.2675653406039227,-0.2721521780749984,-0.3309471053541638,-0.17184826098281783,-0.37425385059334215,-0.18479628132458237,-0.4226817823141367,-0.6008550537854838,-0.28735810369372383,-0.21380142815451844,3
9.95,4.575,4.2,9.425,14.05,28.85,9.95,12.35,650.0,288.0,236.0,531.0,870.0,1829.0,682.0,787.0,17.0,15.0,14.0,15.0,16.0,16.0,19.0,16.0,-0.19628508131725586,-0.3540042374675945,0.011388951235896571,-0.4930100985334045,-0.22187403135276057,0.06321273707303347,0.06952563378886895,-0.3896862711758443,-0.2003113851022276,-0.17331598161293404,-0.09673852757232136,-0.37407516643584143,-0.3936445705654171,-0.30788440616544344,-0.24248081624369267,-0.304542093370759,-0.6854611068711318,-0.6654330441172825,-0.5741698446904552,-0.49405655228366757,-0.5589519796301584,-0.27517744466064387,-0.34330433943613997,-0.21643195329724305,-0.48688991706864027,-0.20209185356275422,-0.058819458055089785,0.06852488146438995,-0.5638826530313135,-0.5359777373247797,-0.23450947224268867,-0.11013788762843754,3
8.925,4.4,3.175,8.075,12.3,20.375,9.375,13.55,568.0,270.0,197.0,560.0,776.0,1116.0,573.0,890.0,16.0,16.0,12.0,23.0,19.0,15.0,16.0,17.0,-0.4290878204803971,-0.4423988792828988,-0.39066015147325456,-0.3145171454123605,-0.6316046173187196,-0.31182775888885067,-0.3001687577764375,-0.3826460604293913,-0.4473464619246136,-0.407955889501941,-0.09503944993718713,-0.3060673253131312,-0.7180963083509008,-0.3250433262770535,-0.2712645457303288,-0.30053531446709547,-0.6265906488110824,-0.48809969510771944,-0.5168263678136082,-0.2969544939443695,-0.17689688898284073,-0.4496655040829512,-0.1375832032624269,-0.37621063638467683,-0.39995097509303473,-0.2888646980698194,-0.09517527510241638,-0.1859769943886624,-0.4474678913116396,-0.2678884419795455,-0.30395203287988753,-0.0903874045145683,3
8.325,3.05,3.125,8.375,9.325,22.775,8.375,9.125,524.0,171.0,178.0,522.0,581.0,1437.0,508.0,498.0,16.0,13.0,13.0,14.0,15.0,20.0,20.0,15.0,-0.3937516696122838,-0.31560817152246406,-0.3884503364312438,-0.13432994207848245,-0.09775692998947934,-0.15579975435103485,-0.2558486868105709,-0.0792911299882842,-0.31156561183904724,-0.4444773521609563,-0.380996736298452,-0.2167697816751186,-0.5702508091364091,-0.4828511212220717,-0.5532476770468127,-0.37360574022941445,-0.39977762982327736,-0.11233631679550318,-0.311740537502014,-0.3464341483671396,-0.4721366660743392,-0.44427247257961244,-0.3259108646091568,-0.5323213721140391,-0.5304503823769386,-0.3500448825210702,-0.40862815096657784,-0.15503957229910495,-0.21918574948746947,-0.4558493520072057,-0.08450425425826821,-0.3378303312315742,3
7.025,3.85,3.075,6.625,6.825,23.75,10.875,11.6,495.0,231.0,183.0,416.0,451.0,1535.0,681.0,694.0,18.0,15.0,17.0,14.0,23.0,22.0,16.0,15.0,-0.4628056857609936,0.07907142602261932,-0.011786853061578137,-0.09745393465007683,-0.2547196375020124,-0.16057917744173658,-0.28048131248109015,-0.23869767142503123,-0.3671310336726707,-0.5531030181561487,-0.19483188087187212,0.0850672090241864,-0.4845287892103727,-0.4495820684624304,-0.18028332652954734,0.04389873525932409,-0.37928721424815154,-0.01723778467412557,-0.4367621832891156,-0.366660943344303,-0.3712699768695412,-0.07566390892564923,-0.19275739546671647,-0.40825963956739475,-0.3213152231139634,-0.010272986250025531,-0.015891999586688924,-0.3165330351937989,-0.33853435072879806,-0.042154313193214,0.07659870967177138,-0.09889503290270649,3
8.175,3.775,3.775,8.875,8.3,30.3,12.175,10.45,569.0,256.0,248.0,561.0,559.0,2019.0,827.0,691.0,16.0,18.0,20.0,16.0,19.0,19.0,20.0,15.0,-0.42662362226804956,-0.3280010184272904,0.07473004931160758,-0.19565785286887755,-0.6162549853194559,-0.12778212208924744,-0.2718862654327308,-0.25872110965291867,-0.42578242745570405,-0.19895897698561185,-0.19492003030537403,-0.5107247873715342,-0.4902334363947187,-0.458581708062842,-0.22103027017701693,-0.39860163547590444,-0.4045894879424398,0.10232715651669427,0.09894911282200605,-0.327463755729193,-0.48037585795461146,-0.11069736439670516,-0.08970577356429915,-0.23532877343646408,-0.4990977721629131,-0.18969691464072597,-0.1600241227190934,-0.3056987439182269,-0.28642183223777745,-0.15312882166751854,-0.10604122861783484,-0.3722195491022458,3
9.75,3.95,3.7,8.675,13.425,25.225,10.325,10.225,621.0,255.0,235.0,548.0,943.0,1523.0,644.0,601.0,16.0,16.0,16.0,17.0,21.0,17.0,16.0,13.0,-0.43953114681307565,-0.3673225867577027,-0.3109859811452671,-0.12891429068547366,-0.5532846913601847,-0.19131851039451578,-0.5229051316430309,-0.40898964956571066,-0.3484876103368725,-0.12420407045291268,-0.275334680133394,-0.25486916162952383,-0.33793898155970675,-0.2099133047407418,-0.26575216161753756,-0.35500261671738986,-0.6216613260426935,-0.1872640159079186,-0.32088516787234894,-0.22499460645535782,-0.2810111447217134,-0.31054735589512483,-0.020391378158993324,-0.21723141683057579,-0.39244536932512414,-0.2656308990039804,-0.1304364623705337,-0.2709485238913021,-0.05912801122974002,-0.026009201520993352,-0.02662341455909423,-0.13958787962814748,3
6.9,3.125,3.625,8.05,12.9,22.875,10.9,9.875,437.0,195.0,231.0,563.0,832.0,1470.0,700.0,643.0,20.0,17.0,17.0,20.0,20.0,22.0,16.0,21.0,-0.5788174385100139,0.030398716463367097,-0.0035731662165227884,-0.1821120753495924,-0.27091133446411336,-0.06147471778458494,-0.47136838186437646,-0.23148989386334967,-0.41572933441146054,-0.3742678724733586,-0.09004026354025009,-0.28856474257882714,-0.5306266902445154,-0.301499819549151,-0.2742181282938865,-0.1847386930971858,-0.7848112759503256,-0.7144229511857871,-0.6702369539099833,-0.4550522815738293,-0.40965302523237507,-0.4021259642606723,-0.0666122926678055,-0.1847283454129537,-0.5074228808209366,-0.14429982859276697,-0.1620308038113841,-0.22587920998435765,-0.3221747970683949,-0.12534061740000324,-0.3244065294105468,-0.22721828152352783,3
9.05,4.8,3.65,7.05,13.1,27.0,11.075,14.05,563.0,293.0,226.0,490.0,923.0,1652.0,643.0,823.0,20.0,17.0,11.0,17.0,23.0,19.0,17.0,14.0,-0.1558113164955806,0.05559654327323424,-0.10851130843891132,-0.10039805587522264,-0.39098243265954996,-0.1702760939990198,-0.1722817326910809,-0.18972272617902422,-0.39170272833550024,-0.583682740342266,-0.3736908525610824,-0.4585162430678642,-0.6599745079969778,-0.5694320471740222,-0.5492962835500558,-0.5030095954654408,-0.7607979282115496,-0.5461676604952292,-0.23423621972239844,-0.2388730841144661,-0.2852713440530188,-0.5833392989991368,0.012176470467628705,-0.1939421305000082,-0.3466233058797762,-0.3197253167087089,-0.2682097347825479,-0.444697473983401,-0.11908130307997944,-0.0419954685481568,-0.29623251655407756,-0.23871361438442346,3
13.275,6.05,3.925,9.325,13.925,31.875,12.75,14.975,818.0,386.0,239.0,596.0,939.0,2178.0,840.0,931.0,19.0,17.0,17.0,14.0,16.0,22.0,17.0,17.0,-0.39009854739477146,-0.3617996015548214,-0.23545882448678052,-0.3405854301185179,-0.35417631993485277,0.05570830829362883,-0.06539078155726895,-0.3532447955792019,-0.3373185002527796,-0.45853509889667876,-0.25749598808235014,-0.3015731023208454,-0.2637774527664958,-0.3851323862131036,-0.3124902024065778,-0.33992763167431755,-0.6692502814045,-0.3244421400513802,-0.27613699171160433,0.019688318470882555,-0.5614276171602635,0.10389197901262452,0.29685596237164935,0.12009306683331095,-0.6135113831225356,-0.46226513245188583,-0.09141262286689616,-0.08061382081514949,-0.303722811024727,-0.28132013000536543,-0.12715764346935618,-0.03421498730200832,3
11.875,4.975,4.15,8.875,16.925,28.25,14.05,12.6,726.0,358.0,246.0,542.0,1104.0,1627.0,946.0,678.0,19.0,19.0,14.0,15.0,20.0,16.0,19.0,12.0,-0.2838793095709186,-0.053164179354947036,-0.30990343432885814,-0.012430006167883952,-0.6751795384020414,-0.36971646209931247,-0.09779302906079501,-0.27626350146136264,-0.3459852860965897,-0.24533129229871212,-0.08505537572150977,-0.18328147226380792,-0.47927885553264504,-0.4600087551113691,-0.41413851623555065,-0.3277246730928934,-0.3772366587596067,-0.2828069153780504,-0.2717576274081838,-0.29820148681394115,-0.16233553694665132,-0.127717549023552,-0.11002269819935352,-0.07844779817357493,-0.5918137836034068,-0.47612121707989546,-0.1496197647808114,-0.03326925906245362,-0.06968243110373576,-0.46669967240530696,-0.05998445068658114,-0.4295394079294408,3
12.6,5.1,5.5,11.575,18.95,47.75,18.325,16.125,792.0,303.0,319.0,667.0,1241.0,3149.0,1364.0,961.0,17.0,17.0,15.0,13.0,21.0,18.0,22.0,17.0,-0.4341123540863174,-0.18334651803285248,-0.3293288105009898,-0.24701653910616497,-0.234630300080393,-0.40518734818483293,-0.17959563288864214,-0.17365604519927233,-0.6149367175873752,-0.5611207469490423,-0.6010818250147534,-0.5168061273714764,-0.4328900631624151,-0.5253157467110982,-0.4112723518661568,-0.5029138275224745,-0.4005317536465085,-0.136454512133162,-0.03181800782656419,-0.032188015777350504,-0.5224196676008401,0.016855213048382067,-0.08933612799101388,-0.2970383719010552,-0.7995379496384101,-0.3123878909331662,-0.41844355773746095,-0.39461705243422335,-0.4906693012949856,-0.2618823452058684,-0.4536737846062471,-0.4186379622224978,3
11.95,6.1,4.6,8.55,14.375,37.85,10.05,12.55,785.0,347.0,269.0,505.0,943.0,2231.0,655.0,808.0,21.0,13.0,14.0,18.0,20.0,20.0,14.0,18.0,-0.34932616000349676,-0.13295562648861559,-0.06337625233984373,-0.17808577588237526,-0.48109008185573965,-0.4306231143471205,-0.5786146793331511,-0.4880211695382024,-0.28126215371935526,-0.23881818052876666,-0.3091301629757092,-0.5019297512693662,-0.1569167935242674,-0.47960288720784083,-0.28853400350785824,-0.4251982519507784,-0.5008192577723297,-0.19836254352901395,-0.166719177047686,-0.2748223157304492,-0.23840709587807019,-0.07946606781996325,-0.05117143907945675,-0.46433937200400666,-0.4448633099985848,-0.35710525244529123,-0.24464361230043785,-0.25729960491362064,-0.2510297535049444,-0.17800687441029028,-0.0858582821813025,-0.13868664891577676,3
9.325,6.625,3.875,8.65,17.4,29.2,9.85,13.525,618.0,417.0,267.0,572.0,1203.0,1732.0,647.0,900.0,17.0,17.0,16.0,19.0,22.0,20.0,20.0,20.0,-0.238003493143362,-0.1837406501156415,0.11660744253966426,-0.39862997033577324,-0.35700037334642715,-0.3147126970885291,-0.17572022981831883,-0.3168093510704665,-0.6394796555392138,-0.45621500250654035,-0.32554677963176754,-0.34751812788027825,-0.6239799363812973,-0.43682008814880785,-0.4406776927402408,-0.3639510790961006,-0.5181258357992814,-0.04268225120109386,-0.010417066982342838,-0.20872270959229375,-0.11754068569792447,-0.08964247511605346,-0.13347099361099923,0.05550973287524282,-0.4109147591137689,-0.27107916780026386,-0.2962351089641048,-0.2743489826324726,-0.4759435654296562,-0.22746558792662186,0.03369706753937629,-0.06353389628867756,3
7.175,5.075,4.6,10.125,18.55,27.825,10.325,13.75,472.0,342.0,290.0,649.0,1238.0,1773.0,600.0,938.0,20.0,17.0,18.0,17.0,20.0,20.0,17.0,20.0,-0.4460746504438021,-0.4491460130113512,-0.4289749885339488,-0.47876178206406833,-0.45366105308046634,-0.23720349963653978,-0.3106816331601208,-0.08949564359595456,-0.3442857797501251,-0.3595649539404214,-0.280633402598554,-0.18866588597082404,-0.45568471210479566,-0.36557064662968375,-0.361804846278682,-0.11045758984352881,-0.6434507138732857,-0.4578665330201206,-0.2587407818332364,-0.26494052699115717,-0.2479041469469806,0.08329838539572916,0.05496483310515977,-0.05022755933899315,-0.17650185340587934,-0.017961803789468152,-0.31552128870765733,-0.21666072103358067,-0.6788844503540998,-0.5271925881121186,-0.31549824747763716,-0.42712826808347626,3
8.275,4.425,3.575,7.95,13.825,27.875,12.125,16.5,542.0,288.0,209.0,536.0,985.0,1560.0,784.0,1041.0,17.0,19.0,13.0,20.0,21.0,15.0,20.0,18.0,-0.28570843697432163,-0.10471744578482614,-0.2505627303370895,-0.11555711516436906,-0.39160776213529735,0.01332269584680781,-0.19555150789389006,-0.104023764797588,-0.10856005780902474,-0.4949452461831017,-0.16965699965467068,-0.26589464868459334,-0.3990423522399573,-0.47515851189317687,-0.32480436648611055,-0.19390800383776613,-0.6693044152236124,-0.5661017420012858,-0.48442959527452695,-0.21959230614743244,-0.21445244203453412,-0.35411835194953983,-0.07449519849462442,-0.360171346335922,-0.5115471756526022,-0.24687844725747085,-0.22467151939618504,-0.13967451613249618,-0.43149648513876554,-0.43045738006586415,-0.21672204928170502,-0.3695252570817154,3
8.2,4.8,3.9,7.75,14.075,34.775,12.0,15.225,455.0,321.0,190.0,498.0,1009.0,2066.0,819.0,1009.0,16.0,17.0,15.0,14.0,23.0,23.0,21.0,16.0,-0.14998473620411495,-0.05856625024086802,-0.09620649742776292,0.15552651366201684,-0.21769761158749462,-0.04347912911715734,-0.19525640180883835,-0.12706282525696938,0.0413715698404508,-0.3868478466449393,-0.07182288142800138,-0.09101598691636702,-0.38754291473275476,-0.26054777125755363,-0.3087842181023297,-0.36480963192222077,-0.6387160468695791,-0.4143577378465569,-0.2837872421064851,-0.16964776183317626,-0.5729944925411736,-0.5096131365866973,-0.40971672379295554,-0.3576196081951841,-0.44605754925447755,-0.1757158788786897,-0.3269356361816024,-0.07849835933092053,-0.4530963406817737,-0.380885636487855,-0.39556883911569535,-0.5595450281568033,3
9.325,4.125,4.375,9.2,12.375,34.2,9.075,15.225,603.0,244.0,283.0,585.0,859.0,2027.0,573.0,917.0,15.0,11.0,16.0,15.0,21.0,19.0,14.0,16.0,-0.6132558906797267,-0.5494052985771237,-0.5614742655126491,-0.3964307487308958,-0.4072611782812414,-0.3368006757910283,-0.20450188845929296,-0.2357244608774442,-0.5238702662328995,-0.5483313200102249,-0.15515699568531915,-0.10933161268899425,-0.5183663996102188,-0.48919199800280333,-0.17338231524485254,-0.11666145343720163,-0.7239163154239415,-0.4878554248130143,-0.3715455802642789,-0.26687092979289206,-0.3376262315952715,-0.14170121138729788,-0.19449430702339468,-0.2994488066929325,-0.40456394034033266,-0.16897410143533198,-0.28911534675875666,-0.1799074266884064,-0.22983474904966358,-0.12073610583460885,-0.4644973589829504,-0.18941304457562494,3
11.1,4.925,4.025,10.125,13.55,27.35,11.075,11.8,781.0,333.0,268.0,610.0,857.0,1603.0,632.0,820.0,20.0,19.0,16.0,15.0,19.0,20.0,15.0,21.0,-0.6646390646867391,-0.44984322666412235,-0.18636536913059565,0.003221642699900042,-0.32706928599245544,0.047729549748634574,-0.16413265394681087,-0.22714424489854737,-0.4720898909615966,-0.38616572186114817,-0.2650982095046136,-0.34973912344873437,-0.6935836505740072,-0.7014794412572093,-0.5737005956102396,-0.5715062679990538,-0.6163425718329717,-0.3445198996631885,-0.32391849654786165,-0.2833478571625504,-0.3700684152731204,-0.17813874055901932,-0.27028568801821296,-0.11467369681294877,-0.301156541757849,-0.4713311402741503,-0.3807243551744915,-0.562962904635856,-0.48071923096743835,-0.1733657807579441,-0.09755479851044073,-0.04010456638598524,3
10.8,4.8,3.725,10.55,11.225,29.5,12.2,14.375,683.0,310.0,269.0,756.0,718.0,1743.0,772.0,891.0,15.0,18.0,22.0,21.0,18.0,16.0,16.0,18.0,-0.3752105700004358,-0.3899434388844059,-0.005218226115641002,-0.1671854867036642,-0.3823171869433475,-0.2545333189235795,-0.09901020906561397,-0.383653423991694,-0.7680473976412713,-0.13971077156497388,0.2311273955180367,0.0026500954453305653,-0.9685401281105517,-0.8071938015729826,-0.5605775892787057,-0.4921347503817043,-0.49320314284963923,-0.20014984605559566,-0.20885722108914734,-0.21342761172491373,-0.3179421330426419,-0.48900163166318394,-0.15203972876562283,-0.28082659203386373,-0.3428770377940218,-0.1986789523264956,-0.14501850700518598,-0.09240179214792352,-0.23539263939372052,-0.2238674512986587,-0.24061686898220463,0.07436223579045079,3
11.2,3.675,2.85,7.55,13.25,33.025,10.45,11.625,739.0,227.0,171.0,525.0,879.0,2062.0,593.0,638.0,21.0,11.0,16.0,19.0,16.0,18.0,16.0,15.0,-0.3901413509360527,-0.38081119843877803,-0.01182299976073893,-0.24348084593120725,-0.38290134594176667,-0.138771070049162,-0.15365174388651306,-0.17990731921479072,-0.1764463195647057,-0.09047397894441864,-0.32121587138120866,-0.1446260826241688,-0.5563313095357019,-0.4524298080082727,-0.31966108568791235,-0.4142048065445265,-0.2864148229774095,-0.45613233489702787,-0.06813570694313728,-0.4510374731088417,-0.5010366503680329,-0.5174157399651099,-0.42313179859008376,-0.25137803905793105,-0.4089855155551372,-0.5908835322941398,-0.3308917357652472,-0.4216833205238259,-0.06917499092077195,-0.2971756633060981,-0.19743622768577496,-0.07713866977890986,3
9.2,3.675,3.125,9.65,11.475,34.15,8.1,12.25,543.0,238.0,210.0,633.0,713.0,2207.0,496.0,765.0,16.0,16.0,16.0,20.0,17.0,20.0,19.0,13.0,-0.3159680397779226,-0.12884814288828744,-0.2322182087260143,-0.31122545613944325,-0.42469173184224995,-0.24225881844047553,-0.30901666803507244,-0.21750750500420876,-0.24029982732479477,-0.19012351039498807,-0.5346314693060015,0.07323495733689334,-0.5590998517148292,-0.34747376309521283,-0.6413780111680302,-0.22676413633989753,-0.3552464310739696,-0.42756140625894207,-0.09688758113212116,-0.23636765848265684,-0.3968496382749372,-0.2114981491256697,-0.2196609088484194,-0.14995806922014865,-0.36749291195003275,-0.27628482811197025,-0.4238812672981752,-0.09801781555629611,-0.16794936754472672,-0.2575706162297722,0.023417229538735176,-0.15691581009325453,3
8.05,3.975,3.7,9.0,12.8,25.75,7.175,11.025,512.0,275.0,249.0,608.0,798.0,1654.0,492.0,685.0,17.0,17.0,14.0,18.0,16.0,18.0,17.0,23.0,-0.3140521836344836,-0.2056397530758275,-0.12740925038877463,-0.029823946380063405,-0.4451787623531794,-0.13249197864237855,-0.1950389803761882,-0.15788079398202431,-0.3584068736725476,-0.17875756724737984,-0.22861270625031727,-0.1319802607499218,-0.6477461948855996,-0.4286131623531415,-0.44691944066354844,-0.24586539607062816,-0.3848173337893612,-0.37417091969221267,-0.2582922569563763,-0.32654266312507674,-0.351162104287548,0.026417678287908385,-0.0579057562264994,-0.084260343638738,-0.3856325017129289,-0.10806474304236571,-0.2057290727342922,-0.33682881980491497,-0.37445271102165445,-0.37424534886627786,-0.30825043454081213,-0.35376778482267457,3
8.875,3.3,3.65,6.0,13.4,32.125,11.25,11.05,541.0,235.0,200.0,334.0,891.0,2026.0,792.0,702.0,18.0,16.0,16.0,12.0,19.0,19.0,20.0,17.0,-0.2877664324411312,-0.20128925106452394,-0.013906467659239127,-0.16521545988585729,-0.5066786443165029,-0.07695923902505528,-0.10476553417502645,-0.06344995990140902,-0.06215775262005298,-0.23050324928699947,-0.17542303696822134,-0.14348487524409012,-0.28266897479300296,-0.16839228568178383,-0.20230257490039047,-0.39414137170157165,-0.47814785723433784,-0.2950890827917737,-0.40060875646744415,-0.3082436108812159,-0.3385221488963223,-0.3066633988590246,-0.1270929690111078,-0.2844719413991132,-0.5909964140870877,-0.24084216810232278,-0.0794214458061618,-0.08868516053377147,-0.18186367488611227,0.21523494461261544,-0.1601034015447557,-0.15208682175430727,3
9.575,3.4,3.875,9.1,13.0,28.775,9.65,14.1,645.0,227.0,227.0,621.0,757.0,1834.0,625.0,912.0,22.0,12.0,15.0,21.0,20.0,17.0,15.0,13.0,-0.4487070380811784,-0.09582792585130945,-0.01874127768632162,-0.1786144279427049,-0.1889041368268542,0.10200274068134214,-0.19438642919474733,-0.2643883586713574,-0.17089625890736834,0.050992571118283786,-0.2290558180958208,-0.09691572933744953,-0.45078823800959017,0.17565507525657367,-0.31041864032221267,-0.3899146334519148,-0.270698709501055,-0.2234882007151755,-0.24467926697441325,-0.2870360581606158,-0.23822203408440912,-0.4218650795716159,-0.11260406097848683,-0.38868950280895975,-0.423086027086111,-0.329400310256048,-0.2380700792182695,-0.2582309926838673,-0.19250859167974327,-0.027177048394191307,-0.4490400931947589,-0.1893999927710206,3
9.125,4.45,3.8,6.85,14.675,31.825,8.825,10.55,540.0,278.0,231.0,447.0,960.0,1879.0,570.0,614.0,17.0,16.0,17.0,16.0,19.0,17.0,20.0,16.0,-0.44181409787571546,-0.31133895772490333,-0.22672799422821627,-0.18292090779514497,-0.37805737098906245,-0.1776485898369691,-0.20254055122365264,-0.25523123540649745,-0.3074007207769914,-0.17990904151987339,-0.3903472619410397,-0.2906254975754754,-0.38367530290885754,-0.24142457062368536,-0.3688068531019798,-0.3203745367692891,-0.8710507580072854,-0.6994697435719976,-0.799964611819035,-0.5380629382619921,-0.4496621317727269,-0.4172424196122216,-0.23870970289195698,-0.042348040495747294,-0.3358937781266434,-0.2655984415435202,-0.17142964812704692,-0.07846103109419852,-0.06942933126097407,0.12330026231995024,-0.028633517984520553,0.01309202274751758,3
9.825,5.175,3.6,7.925,13.65,35.025,10.025,10.675,647.0,311.0,239.0,542.0,942.0,2405.0,619.0,672.0,24.0,16.0,21.0,21.0,22.0,20.0,17.0,15.0,-0.4135638972062661,-0.17790593471646546,-0.3271229989789517,-0.029839955909621903,-0.210172393241825,0.038270831754491946,-0.32048109798733293,-0.03330085758886283,-0.5624540797893423,-0.5345139615716913,-0.3660652755422536,-0.4570725535914462,-0.7554106830471629,-0.7331166225290473,-0.4819218942745398,-0.5202586890382171,-0.7076159073348529,-0.47666912744224404,-0.46069946363182224,-0.2660609350178496,-0.8126518365655117,-0.7657283866776667,-0.333638582498645,-0.285150159311278,-0.44922414177296194,-0.4398812416047785,-0.1443250338466805,-0.0294079474950928,-0.24793819070170509,-0.32786929643633095,0.23465502814387257,-0.07936632083486263,3
7.275,4.05,3.85,7.825,14.275,30.025,7.875,11.025,437.0,224.0,237.0,504.0,988.0,2044.0,477.0,662.0,12.0,18.0,15.0,19.0,19.0,15.0,16.0,18.0,-0.19110027235622604,-0.14466106769257445,-0.33042705737052414,-0.34245705987576586,-0.16233444270991,-0.3587193918776642,-0.083944004757035,-0.02907792920080245,-0.44252699473241974,-0.29340459066637997,-0.3349902335320711,-0.35354585034689906,-0.5993664699847492,-0.42270421124694296,-0.469298759017724,-0.5326004225298299,-0.6427696393481994,-0.37903453062768455,-0.27441975309209854,-0.484059566809896,-0.4202944255720532,-0.36825662740778453,-0.0654099129054271,-0.4838870103697863,-0.12258866774295181,-0.07954125419490589,-0.054491146741981675,-0.19065496056111578,-0.247966796382436,-0.09160122491048421,-0.1160808873673868,-0.29222135562959944,3
9.175,3.95,3.4,6.25,9.7,24.225,9.225,13.025,592.0,231.0,231.0,432.0,672.0,1561.0,562.0,913.0,20.0,18.0,16.0,17.0,22.0,17.0,18.0,19.0,-0.3456845846369207,0.03797794605481823,-0.02776583115870154,-0.40152618900009673,-0.10470245588326654,-0.259937387455248,-0.18748137707069276,-0.1959466320177292,-0.38111551960363615,-0.0739796828130978,0.014171149801443062,-0.0481563457646371,-0.4973759779691285,-0.0070437876539856895,0.003957158183849649,-0.23474782084315174,-0.6183816082106163,-0.27233240632043537,-0.4732583740159326,-0.2662217345731819,-0.31558145655601294,-0.4337520549546615,-0.0338467807483603,-0.45605335111280143,-0.256583734082483,-0.21680961964794723,0.056385457839524346,-0.04592046275615012,-0.5663538320637899,-0.34934858365710936,-0.4098269190039357,-0.315169379173548,3
10.125,4.3,3.625,6.625,11.1,31.275,9.625,12.875,572.0,277.0,181.0,383.0,751.0,1847.0,555.0,835.0,16.0,15.0,9.0,17.0,17.0,14.0,15.0,18.0,-0.12794534494921217,0.11685678768992752,-0.16523681310482138,-0.20535095254308885,-0.2070788328377635,-0.18959099010921973,-0.0551031069403816,-0.24332418318262983,0.0665845490990787,-0.1961367138761815,-0.34501909412168913,0.02368711174047091,-0.030679051505160534,-0.42930469627393136,-0.034087478499424936,-0.1742269825323884,-0.6265479682870173,-0.34769060354620235,-0.4316085157878329,-0.3340999633083837,-0.4029949572283342,-0.4832749598076827,-0.31696019415527077,-0.3634393545996162,-0.1820399297218799,-0.263933280214464,-0.17438471721543916,-0.04067406240068898,-0.2249458810568278,-0.2480465580364472,0.03614956421350099,-0.26470276281305194,3
8.475,4.1,3.025,7.55,10.275,28.475,7.3,12.8,452.0,256.0,165.0,471.0,632.0,1711.0,485.0,845.0,15.0,13.0,13.0,19.0,14.0,17.0,12.0,15.0,-0.013942680834315296,-0.18682779337686092,0.03204498102279287,-0.22469389181189084,-0.400612742800267,-0.1365336605497293,-0.4189427581797549,-0.34151354007218854,0.08927403933041278,-0.3021632857659456,0.04442152371055762,-0.16003607489012492,-0.34747209122541634,-0.43148422320212465,-0.05775664203598876,-0.20343850738948369,-0.4482704707135281,-0.252222054226815,-0.35422189447608005,-0.07370258764770521,-0.2634677659005235,-0.1718007022917104,-0.02469759717367139,-0.21431047712055146,-0.15724876986885705,-0.0380528492756349,0.15331307641754768,-0.0781729434183315,-0.2555925538774998,-0.11126101552840147,-0.06906448911659238,-0.18621800899219487,3
5.975,2.975,3.2,6.525,10.1,26.975,6.1,10.575,369.0,166.0,188.0,427.0,684.0,1620.0,378.0,708.0,21.0,12.0,17.0,19.0,19.0,16.0,17.0,20.0,-0.1040220056377782,-0.026980078931854744,0.0754902019977227,-0.3661926638318364,-0.2521915227494096,0.09495020792606093,-0.3123359381394671,-0.48598828969077085,-0.25871011802556765,-0.32009178626901835,-0.11321891989834916,-0.314383288839542,-0.5474578144464017,-0.24696092876016976,-0.0510355381777434,0.09061690747573235,-0.5494281551523893,-0.3133422381422548,-0.18117722027579894,-0.02428488369562095,-0.21541910176087867,-0.21517346288257613,0.1636088665056871,-0.1527139834960335,-0.35741170931589694,-0.23939778731293684,-0.12682619767290593,-0.2811613327046684,-0.3684078917543083,0.04793858999466122,-0.08330328476436809,-0.10762786842729122,3
7.15,3.15,3.125,6.175,10.55,24.575,7.15,11.2,452.0,219.0,206.0,426.0,763.0,1599.0,415.0,740.0,17.0,16.0,20.0,21.0,25.0,18.0,16.0,21.0,-0.32140958669817793,-0.10961897154914488,-0.09555992496627365,-0.1663089143385824,-0.6780046347360107,-0.5593504926519782,-0.3597640169982548,-0.2664703702139062,-0.42298936308266855,-0.4418333788890017,-0.32478063734615464,-0.25711727901493625,-0.6015911354358882,-0.6260693651386681,-0.4624606547706623,-0.193621920674581,-0.9192444526541942,-0.4905690743103932,-0.20793826652744735,-0.08020066172657067,-0.49373098474155513,-0.4964836789133596,-0.3483702730349434,-0.17143576666428495,-0.4055151967646216,-0.20449459500239267,-0.19620598548605112,-0.07325611022813883,-0.40745015788855765,-0.1813960366237729,-0.24142679411323434,-0.5348721639860061,3
8.225,2.475,4.075,9.4,7.95,21.775,7.275,12.625,556.0,138.0,238.0,526.0,531.0,1497.0,483.0,814.0,16.0,10.0,13.0,14.0,20.0,19.0,21.0,16.0,-0.41686838512462243,-0.1897799576277699,-0.32814763115101053,-0.24184570559778873,-0.17529363627642314,-0.36603359711409816,-0.3188528085781326,-0.07311401226641824,-0.26675826477789993,-0.31485073254158646,-0.343458717961881,-0.24795615859982917,-0.430211573102756,-0.5436946362139284,-0.5172351566756236,-0.24254913644142026,-0.47139421655513936,-0.1916359282657565,-0.4434304464612594,-0.08321415307271542,-0.3997539959649877,-0.4669522363578704,-0.21426711341508942,-0.3514103122517352,-0.5079341736585937,-0.22523159594328374,-0.2850132302066787,-0.31449587123512746,-0.34444246069856777,-0.0548120236631838,-0.16926609526463385,-0.3843642102659129,3
6.85,2.25,3.775,8.225,8.875,20.55,7.7,10.95,442.0,138.0,226.0,533.0,534.0,1297.0,518.0,571.0,13.0,15.0,13.0,17.0,15.0,18.0,17.0,11.0,-0.4298499463166605,-0.27111240917505663,-0.2161096008099672,-0.002166055761056395,-0.1382990699439593,-0.06669811153690888,-0.30670871217811846,0.30719416112854175,-0.4177092326790153,-0.24458555572918028,-0.5176583115724138,-0.13176529037798224,-0.6725839344466532,-0.4909992579791273,-0.6255186821122902,-0.3324677730066169,-0.5366211716080547,-0.42450236798822066,-0.47584021088126766,-0.3228978360453544,-0.24299921129844174,-0.05866019659586098,-0.23435385717648544,-0.06375292908491619,-0.6092874118361787,-0.3203329666112195,-0.47725299407093186,-0.4864802603404274,-0.07991459743094281,-0.5249654365306673,-0.1771646428732771,-0.3325990409883078,3
6.375,2.35,3.425,6.95,7.4,27.675,7.8,7.9,375.0,140.0,234.0,413.0,436.0,1816.0,447.0,402.0,17.0,13.0,21.0,15.0,17.0,21.0,13.0,13.0,-0.4070842253732972,-0.12575515724662314,-0.24024798605893072,-0.19773648990061723,-0.23337749269486666,0.17908251796900515,-0.2333148315494089,-0.34998703983527346,-0.6644586225135463,-0.37734306103899484,-0.4437112496063494,-0.32564656876669007,-0.696542683845603,-0.5417082456673059,-0.5090390472818911,-0.42678520946984666,-0.2944757569885875,-0.40406916037875823,-0.2249839552884682,-0.5163024693259195,-0.7470109000402261,-0.4680822340167727,-0.1836560823288215,-0.14800077433135791,-0.41165492436654516,-0.3367180247006805,-0.27792980162274405,-0.16144576581251457,-0.010524320288420111,0.18249014379429526,-0.1878645708691234,-0.22650782385368162,3
7.1,2.175,2.425,6.025,9.375,28.025,7.925,10.25,421.0,126.0,151.0,402.0,617.0,1805.0,417.0,644.0,14.0,14.0,11.0,17.0,21.0,18.0,13.0,14.0,-0.35702773382879416,-0.1194024675959704,-0.09869019998843243,0.012001157547156764,-0.21782501374412797,-0.012810223872307964,-0.19718002001413706,-0.09591945881283365,-0.17816018450543633,-0.33677054016523505,-0.3690421055159693,0.03182123523542377,-0.5534962934108674,-0.31886715824001827,-0.4283939503813223,-0.25514208390363263,-0.7559966233391838,-0.7411875848621295,-0.6984634217217688,-0.20010491254809196,-0.6405002987056038,-0.4663506479509939,-0.30712269586447444,-0.16415818426964227,-0.24353717187251844,-0.5255276080346598,-0.2922725798998336,-0.3341992801994643,-0.3111262376082214,-0.3649849198783513,-0.3041271221345939,-0.09138930756708681,3
5.65,2.6,2.7,7.05,14.95,24.8,6.625,8.9,349.0,150.0,163.0,418.0,896.0,1399.0,374.0,552.0,14.0,12.0,11.0,19.0,17.0,15.0,15.0,16.0,-0.43526171381406387,0.07619962305041743,0.5137526173461613,0.16781160071350376,-0.23724032331270098,-0.0041558986995759,-0.2275910292993042,-0.41344556390697984,-0.284428281216963,-0.19205600385116758,-0.49039387984360605,-0.17017794488044508,-0.4015137313117198,-0.21239490110142525,-0.5013013858467049,-0.1807049711007299,-0.3408018031986936,-0.2381547506439279,-0.03094002835516323,-0.008767940220439321,-0.30636688862534006,-0.3259923909439284,-0.31784556993731833,0.0662883248040457,-0.2520225308436381,-0.12093811717843153,-0.17410258327268557,-0.31020033310516626,-0.2554305196252026,-0.20481182042212234,-0.2840963440421558,-0.2907775391232945,3
7.025,2.875,3.1,7.0,11.925,28.25,9.725,8.225,436.0,151.0,185.0,498.0,691.0,1817.0,704.0,585.0,15.0,14.0,12.0,16.0,14.0,19.0,24.0,21.0,-0.19826286987239525,-0.18774482708158755,-0.08369073622644017,-0.2357105015746959,-0.16800666642159376,-0.46242471960672543,-0.14602840813917656,-0.1868705215877363,-0.3046174394814926,-0.500430255650761,-0.23461783824306948,-0.22864925583787862,-0.6699908395712015,-0.41337418649348384,-0.21413769755832987,-0.1578045669115222,-0.338075145787796,0.045267522067245616,-0.1410411007864313,-0.2214389716481557,-0.38519250839465724,-0.0875907576708968,-0.43177832574413016,-0.18747914432253918,-0.6984909578617645,-0.24782344332351794,-0.29146448271085823,-0.1500464192473213,-0.460569016216812,0.04580314527688047,-0.14721776789350868,-0.3680786885002607,3
8.375,3.225,2.975,5.875,11.375,24.925,11.15,7.75,544.0,214.0,179.0,359.0,758.0,1544.0,782.0,464.0,15.0,17.0,18.0,14.0,19.0,18.0,20.0,13.0,-0.6008579053249513,-0.4824824072279797,-0.26606862865278275,-0.351257562656022,-0.630156893941776,-0.4000448467865191,-0.44214846561116533,-0.4169430849718752,-0.3144696259777876,-0.18238879751581966,-0.15768704815630602,-0.29421730328799056,-0.5038221551600361,-0.4771581364298569,-0.48571097041097705,-0.37069194468968597,-0.5802119520745219,-0.641607877037369,-0.30078963350524,-0.3256553343515753,-0.22973027089501602,-0.3294085332471592,-0.09017494575225898,0.10788151658603917,-0.5543239249224317,-0.14606897559281323,-0.21321038183821683,-0.037418988489606675,-0.05131450525341958,0.16477392043163738,0.05377008172541975,-0.27118036733306694,3
8.125,4.925,3.1,5.55,13.425,34.425,8.5,11.25,499.0,316.0,174.0,295.0,950.0,2406.0,486.0,725.0,15.0,17.0,12.0,12.0,18.0,21.0,18.0,18.0,-0.24637498806652383,-0.309922134299343,0.03005814536266382,-0.1945946361269564,-0.3457242515626096,-0.013554259700765268,-0.3691423156771037,-0.36596793307040826,-0.19924111245278964,-0.46793548395674,-0.16241457694038,-0.4761167269715456,-0.42709165468738164,-0.471932335831215,-0.4413240591606347,-0.45368318405346053,-1.081471258029777,-0.9533672616643645,-0.68031551127016,-0.383608518845447,-0.6753440877896644,-0.12430066394101631,-0.17080239598785213,-0.365768464611027,-0.1217312374898142,0.03842949694085975,0.11668232644211292,-0.15834068752893846,-0.23255599820062023,-0.11416397274265379,-0.11684898185021937,-0.38632526629292147,3
6.45,5.25,3.95,8.35,17.85,45.9,7.9,12.2,371.0,337.0,258.0,564.0,1190.0,3219.0,484.0,855.0,15.0,18.0,16.0,22.0,19.0,19.0,14.0,19.0,-0.08115046288800878,-0.135108349340186,-0.22185620808472212,0.19808536284085226,-0.32316817590900176,-0.10587374275547927,-0.011314343495767081,-0.1442744641261908,-0.3981735276703829,-0.015160223587830717,0.1821836527769498,-0.08119101238652147,-0.7830711642638313,-0.5000629733931576,-0.3759538379275906,-0.4218212807215277,-0.5040345107295487,-0.19784763460440907,-0.4875477863249906,-0.35844978881485917,-0.4971115430899531,-0.09657563432540815,-0.26558291049355026,-0.34033913373053265,-0.1658975282009734,-0.018756112121495694,-0.12001088717410424,-0.1671032540176447,-0.49968186214063665,-0.29207033393465565,-0.2995418172535039,-0.33238538310171983,3
7.9,4.4,4.025,7.8,13.0,43.625,10.025,10.825,511.0,268.0,246.0,490.0,856.0,2905.0,663.0,691.0,19.0,19.0,14.0,13.0,16.0,17.0,19.0,18.0,-0.26974343211947605,-0.09808511520663814,-0.009287149835650871,-0.39975331942492737,-0.24379192025283045,-0.19545077214532391,-0.06465085745716223,-0.27795750091238286,-0.4456455484975293,-0.6297281637425493,-0.3617913625864887,-0.4716674847359374,-0.5794730900049511,-0.7477505067332665,-0.42915155257151827,-0.5251082728638318,-0.3776571218773272,-0.13140840085147565,-0.21377598271120526,0.08355707986789719,-0.5941050812204679,-0.4977118348707791,-0.3147908698870081,-0.3307067918466252,-0.4431729537224952,-0.05053220973988328,-0.15716000744959638,-0.13588696331231073,-0.3676965400213109,-0.17962543421174032,-0.4367722867733342,-0.22143322718410827,3
9.625,4.15,3.325,9.0,13.475,32.65,8.275,10.925,672.0,265.0,208.0,555.0,833.0,2014.0,492.0,793.0,15.0,19.0,16.0,11.0,17.0,17.0,15.0,19.0,-0.4791541954365574,-0.35072076967602134,-0.2590524399882976,-0.5599868721509802,-0.4796440025751933,-0.22266315372221934,0.08409593598199984,-0.18991634725897147,-0.37960578560227815,-0.3155545596524414,-0.2263255572657909,-0.3798951506234072,-0.40451840335071093,-0.4491843612967053,-0.350345991775145,-0.43891216296625596,-0.5614832356877102,-0.4859001980581177,-0.37612899933095895,-0.1307187765366116,-0.40329523958579677,-0.3409206495033559,-0.39003174263214613,-0.22361734592236415,-0.05322262456167625,-0.19361914143882247,-0.01395642033763636,-0.3229527922354049,-0.46255117238231197,-0.2878528855989089,-0.10582955485579384,-0.428304285642759,3
8.875,5.025,3.975,8.35,16.125,32.975,8.975,12.35,562.0,308.0,240.0,576.0,1002.0,2235.0,618.0,795.0,13.0,20.0,15.0,23.0,19.0,19.0,21.0,17.0,-0.37868724958832234,-0.25768316971577243,-0.15817425439317717,-0.11055279097261707,-0.26600875218512304,-0.2792991197542976,-0.0050097763425261425,-0.3833935090033994,-0.29351741587498575,-0.2089164743139433,-0.3562598005005288,-0.3027505006953432,-0.5900647439915119,-0.383249465694878,-0.43037661865489907,-0.2936852315034114,-0.2964303595937122,-0.3519909704584811,-0.04180765764209792,-0.612989263509037,-0.45343600001097795,-0.2814428926584624,-0.06631896287811528,-0.25589070036462525,-0.7340491898612148,-0.4150789371132549,-0.20705449978923932,-0.13306789643439706,-0.23277741396693144,-0.3292606217179313,-0.089044182898765,-0.36209282516461416,3
9.025,3.5,3.1,7.075,14.55,29.025,8.95,10.675,626.0,184.0,173.0,444.0,844.0,1963.0,613.0,597.0,25.0,12.0,11.0,15.0,18.0,18.0,19.0,17.0,-0.4508773576707192,-0.20613468690207784,-0.15961081700414495,-0.211434773948972,-0.08675588312959492,-0.20907651041483086,-0.3124325390746072,-0.22453617669107348,-0.1558113290950741,-0.16303108532573055,-0.28914138035586884,-0.4142567359464397,-0.3558005839209378,-0.6286411268884194,-0.22105366640876004,-0.6450868885622809,-0.4959594664270718,-0.635291918983048,-0.2845850230436134,-0.4161105828187549,-0.5502506032829771,-0.34329355469230916,-0.1436411791149402,-0.21795341207928492,-0.8430459283034596,-0.5737082142786213,-0.4305579081513933,-0.30710151825310933,-0.034400689711307164,-0.3337480244252975,-0.05512221008556492,-0.235738103725797,3
9.0,3.875,3.4,6.825,12.975,34.8,9.175,10.575,599.0,234.0,206.0,437.0,825.0,2314.0,608.0,718.0,17.0,14.0,15.0,19.0,20.0,17.0,18.0,20.0,-0.6869563139134274,-0.3500462271370483,0.10617914817287112,0.03085365852689699,-0.501615131885282,-0.10218358193988562,-0.21629025514749653,-0.2743040563470611,-0.30663092456713475,-0.33650931257013666,-0.25575816212752517,-0.2914693089254911,-0.4012235429494097,-0.2942374444686301,-0.26185970612916826,-0.35533923778307247,-0.5418879118170699,-0.18248076512559464,-0.27928133676521044,-0.353408962218182,-0.4270266386303346,-0.30974299495769975,0.020916228800081923,-0.3554499016651383,-0.6606552442728965,-0.22563884363321546,-0.03033082974396857,-0.09272713492322789,-0.6790198808989365,-0.3917587877499791,-0.39210759714479454,-0.3711130304005718,3
8.825,4.525,3.8,7.025,13.075,35.9,11.275,11.75,523.0,267.0,238.0,530.0,823.0,2387.0,689.0,780.0,13.0,12.0,19.0,25.0,17.0,22.0,21.0,20.0,-0.33259239220382275,-0.2401339658310273,-0.3274361511633733,-0.4173030964868919,-0.3842313367454373,-0.17402398159720567,-0.1603389807876667,-0.20636482554739013,-0.4684909732234638,-0.27303573904095435,-0.4558517193122837,-0.5260093071694176,-0.5026389362208588,-0.19803076218489807,-0.23837145136458,-0.35397199916227823,-0.6580674638397054,-0.5519579111981044,-0.33842059890992765,-0.250802340138076,-0.5464444444672156,-0.5028080173123092,-0.07009446442514018,-0.16883987651052618,-0.526272384701164,-0.3120075177612637,-0.10323143995704304,-0.19095689061133583,-0.4290528501582275,-0.1421808531599015,-0.25473077188944215,-0.44185037502322283,3
8.725,4.9,3.9,6.625,10.9,23.15,8.05,8.625,530.0,298.0,226.0,383.0,754.0,1097.0,523.0,580.0,19.0,12.0,11.0,13.0,20.0,11.0,21.0,18.0,-0.23680800710667013,-0.04801223919969127,-0.23666636823647882,-0.21668163762978018,-0.1078085514943162,0.07109132938652189,-0.1497398593269949,-0.08060761990574299,-0.11660218682871755,-0.0893968278171625,-0.1987940907278428,-0.14879677138049222,-0.07986852080030661,-0.147897909173196,-0.24631153706847247,-0.024307311084030243,-0.609966036732931,-0.23936613181767763,-0.10007118095730291,-0.17162726382629875,-0.07442781948341261,-0.27156752409436663,-0.2997642910751428,-0.1261853524471148,-0.5426849815339587,-0.22920582211341295,-0.35816994573086347,-0.2199594907097031,-0.4785236322101938,-0.1116382928759766,-0.14249627213993596,-0.17812408097030977,3
7.6,4.85,4.225,7.225,11.425,26.55,9.175,8.275,481.0,305.0,218.0,396.0,785.0,1632.0,549.0,483.0,17.0,15.0,12.0,12.0,19.0,20.0,16.0,16.0,-0.23898920672495036,-0.2244119928105701,-0.00809424470826822,-0.046464266070955274,-0.22425751889225204,-0.0897090006905531,-0.17716584759127127,-0.1376716030206262,0.029610152410762168,-0.18733958892427363,-0.06852578269101314,-0.3284908972995557,-0.14016278101196697,-0.16920830014296895,-0.06289426800598483,-0.12121606300794409,-0.5368874972659757,-0.22703447044079839,0.03613512843886877,-0.10295041881206689,-0.5184810385644186,-0.3663349521070129,-0.30101993521231113,-0.17216512104741202,-0.3345437323729794,-0.10785711284255846,-0.31776226992383966,-0.18586652356822,-0.28209763686929246,-0.3187221132720738,-0.29084617242560923,-0.1412615047013072,3
9.0,3.65,3.625,6.975,10.975,22.15,7.9,9.425,595.0,232.0,229.0,465.0,746.0,1473.0,503.0,661.0,17.0,16.0,19.0,19.0,21.0,21.0,18.0,19.0,-0.42749299971070653,-0.431067430621206,-0.38212724796086917,-0.19838659402832545,-0.09785904218528221,0.08653577599769625,-0.0019529754632755508,-0.18966346925044988,-0.19969376567911612,0.009944604703256373,-0.0786226088943918,-0.12729381380648624,-0.39964783854148495,-0.0593855611392526,-0.27154429830255683,-0.17422811403274593,-0.7897108451164443,-0.5610432628710094,-0.26708996749849473,-0.26356226055916776,-0.46865936896291455,-0.40121271997856184,-0.07895831465967824,-0.18484696975815798,-0.3809164307180631,-0.2469721631277175,-0.05801059870420303,-0.29092991782915195,-0.7810715445271466,-0.3424682753041599,-0.5365017616274765,-0.45157484011398863,3
7.575,2.8,3.05,6.9,8.625,20.8,7.05,8.05,494.0,148.0,162.0,447.0,613.0,1207.0,414.0,499.0,17.0,10.0,12.0,20.0,24.0,16.0,15.0,18.0,-0.43913456258869255,-0.44815980452041926,-0.27897047897549276,-0.1219008885991593,0.07880536859556357,-0.09605032606336306,0.16494287332209048,-0.19800268989891442,-0.1463924437141685,-0.17714516186049134,-0.16341551012792196,-0.2618845279004201,-0.5017372389925313,-0.31098394844204097,-0.22156601144823435,-0.15835902468197902,-0.7083691393615223,-0.5103250734187135,-0.6522842335380584,-0.2566945666379109,-0.336121496981732,-0.44457081484308314,-0.2432862751516145,-0.2686213218820975,-0.10172323452133258,-0.020786071593527963,0.026795193383733405,-0.31633177707937815,-0.3070856960251353,-0.2503246012069853,0.06271980396299993,-0.11059185206983306,3
8.575,2.825,3.725,7.7,13.25,35.775,9.3,9.35,510.0,183.0,198.0,481.0,802.0,2324.0,612.0,559.0,14.0,18.0,12.0,12.0,18.0,21.0,17.0,13.0,-0.29421296275116254,-0.24758975074623213,-0.0930801689901025,-0.17476974817385008,-0.40838663118941215,-0.16847236720566788,0.10739009851900162,0.18178339087123813,-0.13539316273092952,-0.5730961541730664,-0.0656574089500602,-0.45558302055605826,-0.3479650597402094,-0.2891966497563852,-0.36668188821801573,-0.19456560753446675,-0.8271245292320737,-0.6599734834551632,-0.6502527841179746,-0.5002060336770137,-0.5761680308641388,-0.5011622209176994,-0.3467344745519346,-0.44818333750237455,-0.4267423860155115,-0.4408509270749728,-0.0409917896276803,-0.2958051344931365,-0.3382924629780532,-0.3407542686515496,-0.09869718106462116,-0.27713499265337604,3
7.675,3.6,3.3,7.0,8.725,28.625,8.675,9.775,501.0,232.0,157.0,433.0,511.0,1716.0,560.0,637.0,17.0,19.0,15.0,17.0,15.0,15.0,15.0,18.0,-0.2277957001055197,0.04750730492692586,-0.04671645933820943,-0.3919469525200824,-0.3968688399731991,-0.17205916936257146,-0.16281927194801693,-0.22532313727360112,-0.03111158839980914,-0.3228126769967682,-0.3011459558958732,-0.23531105246153244,-0.27795664193141656,-0.22358142475651283,-0.4296386477342202,-0.1760598845809494,-0.5778342990928039,-0.3607746335728063,-0.4385826058386889,-0.22433321904001918,-0.3715269362556995,-0.31193284940155075,-0.07255659971120008,-0.27078063460957136,-0.4973022454387593,-0.38858120790662787,-0.21927262569278547,-0.3685325417851535,-0.6217068502777742,-0.5717010410336575,-0.528493440250228,-0.4543894344746444,3
7.475,3.9,3.75,7.375,10.975,27.35,7.3,10.425,484.0,256.0,215.0,456.0,724.0,1771.0,416.0,635.0,18.0,15.0,14.0,18.0,20.0,16.0,16.0,13.0,-0.4832282271118702,-0.34209336262235573,-0.13071982385914008,-0.10213793976040587,-0.5354361682664828,-0.44431217481217805,-0.3179598850042594,-0.21120754931545802,-0.2804912773197761,-0.28594558790187147,-0.16684722121614942,-0.061737231420379554,-0.4158909568698405,-0.3782388702158953,-0.37034452924960004,-0.25491573485451546,-0.7933317081836055,-0.5816092790552759,-0.30485331946472677,-0.27102513210506574,-0.4253865061814561,-0.44090757178661294,-0.22896738754697915,-0.1165113418222759,-0.48974553265477827,-0.43799465383627223,-0.3227957893788419,-0.1764667666295055,-0.1382104099573626,-0.044060300024351524,0.1422131160254569,-0.19846521169493578,3
6.225,2.95,4.325,9.25,8.275,26.15,6.525,10.05,401.0,168.0,234.0,563.0,512.0,1695.0,335.0,622.0,17.0,15.0,12.0,14.0,16.0,19.0,13.0,15.0,-0.4008461636413489,-0.031005384634838897,0.1143822970501714,-0.185818445018407,-0.19976872505079063,-0.07100412935419087,-0.28966394680023233,-0.15692325147587205,-0.12299083394827785,-0.0648816321699376,-0.144845159606076,-0.32723126606083,-0.19408884026953035,-0.14967374038688774,-0.11876577753590503,-0.3690306969662691,-0.281099517767356,-0.21320252482392338,-0.09338915333811668,-0.09389952586435495,-0.4500627072580204,-0.33692482787562733,-0.3976081503175186,-0.3293448554078026,-5.6953076330614174e-05,-0.1704662377381465,-0.30504850584379517,-0.2355154071743868,-0.4059904473202578,-0.14928122491629925,-0.3104158663733044,-0.21790297699776845,3
5.9,3.375,3.725,8.2,7.8,29.325,9.0,11.2,362.0,210.0,228.0,548.0,536.0,1854.0,575.0,708.0,16.0,14.0,16.0,20.0,20.0,15.0,19.0,20.0,-0.2432464369933338,-0.1942511338890699,0.024002760728240747,0.008820947978858478,-0.3528547251430693,0.0142505181380497,-0.18224007379108279,-0.19561105825731157,-0.2034425633314818,0.23643004625912492,-0.10639099567543346,-0.3799915978220924,-0.3897167440897586,0.0064314985274427335,-0.07302616570994776,-0.2986297581169624,-0.3634455740249916,0.03839542292962465,0.19410888815778968,-0.19905235318066344,-0.34455538034059463,-0.2960212170554175,-0.3189330977325519,-0.45229993154228687,-0.41679950575065566,-0.09313197908046386,-0.3267998438718904,-0.1882648802222747,-0.39979794830888843,0.05748990858692384,-0.38827650137008546,-0.34091510910025496,3
7.35,3.95,3.0,5.2,8.725,23.8,8.35,10.725,450.0,240.0,144.0,278.0,560.0,1456.0,476.0,734.0,19.0,15.0,8.0,16.0,21.0,16.0,15.0,20.0,-0.4498644729003438,-0.48104219036746954,-0.1918144251055266,0.07739896298174123,-0.3812030560154312,-0.004415209334411281,-0.3976269323857237,-0.34075941369528856,-0.043288114248707196,-0.20312748520763044,-0.26604864552714347,-0.1049062062316834,-0.3061389986369491,-0.39135791223343624,-0.347953061443526,-0.19345632142513336,-0.3109636804081155,-0.08267411207528762,-0.1734782305268059,-0.19658655095614908,-0.26348103538301504,-0.11445294095501032,-0.008387706550473273,-0.14352796486510305,-0.09615935838019916,-0.05781744516782162,0.017187252815857642,-0.1614658395290078,-0.49806409158209797,-0.29885621354906816,0.2143174520716294,-0.01854604993441743,3
6.625,4.725,3.375,7.025,9.275,25.025,9.3,11.125,365.0,274.0,212.0,468.0,640.0,1532.0,507.0,673.0,13.0,15.0,17.0,18.0,18.0,14.0,15.0,15.0,-0.3454086735194276,-0.5191869470475091,-0.34065220714116595,-0.09725968645289751,-0.2839289888527088,-0.06477976039755824,-0.38978522833975743,-0.4535863907038147,-0.5123815478348978,-0.4088604046809166,-0.24166881114823416,-0.10655960852607192,-0.7132716449995398,-0.6667948116749849,-0.3354723991506751,-0.15633521341175363,-0.6594729426366748,-0.7095194395588156,-0.27932578205562536,-0.3495460502369145,-0.39861396984980774,-0.4324321301380365,-0.18538122235816223,-0.41882390198648184,-0.18470384153786618,-0.04423945797902843,-0.34939899082726283,-0.208556647823213,-0.26596219958830963,-0.24793854198612075,-0.05761800798012073,-0.18784595310963167,3
8.95,4.675,3.4,7.35,12.875,31.275,10.675,12.425,524.0,292.0,209.0,478.0,927.0,2039.0,651.0,816.0,16.0,14.0,15.0,18.0,18.0,18.0,16.0,19.0,-0.09617869683376656,-0.35064297538955475,-0.12010008864461595,-0.34052700992522494,-0.421011482010346,-0.14347647729245144,-0.11145704798063369,-0.22490058686282746,-0.34589455606082264,-0.244176327658309,-0.35630279414202765,-0.28498703855783625,-0.48097133584569846,-0.33525474028230307,-0.32806514440006485,-0.3504865119592893,-0.6391565688509647,-0.5835009617400864,-0.3394474440891594,-0.41600792118169594,-0.4532855099085132,-0.021055598717143822,-0.13906636929369956,-0.1971059510238974,-0.3141753653293244,0.1462078774769663,-0.17048716050592055,-0.16327674724082902,-0.29162606892290394,-0.10463922708332417,-0.21331963416330582,-0.04842518771097216,3
20.325,9.925,4.175,9.85,13.95,39.525,11.925,10.0,1290.0,614.0,273.0,702.0,909.0,2311.0,718.0,703.0,20.0,18.0,21.0,17.0,16.0,16.0,17.0,18.0,-0.47139656918116274,-0.22729380027790708,-0.3443049938702181,-0.22089034216251913,-0.07563413803241222,-0.49944943142648357,0.19150558766046671,-0.36893271889439133,-0.38369119117019285,-0.05417285452321303,-0.34153615260400466,-0.2586966237575701,-0.5403307038459733,-0.24012640029185395,-0.4130609175324256,-0.3741102292018871,-0.3290866084495893,-0.23058604715805342,-0.13628248897022754,0.15095487792335707,-0.3048732521625129,0.017354123284454067,0.1355024995029923,-0.04498770093982368,-0.5955394976850089,-0.5585897394452654,-0.3558155603697086,-0.17745329843967966,-0.4050671131280027,-0.14576276163493662,-0.25272544735279634,-0.446096752691085,3
18.675,10.225,3.375,7.85,14.725,28.7,9.4,9.75,1227.0,702.0,224.0,524.0,939.0,1670.0,589.0,693.0,20.0,22.0,16.0,16.0,16.0,13.0,17.0,23.0,-0.5159892544990913,-0.26340025289579166,-0.13491694016511285,-0.17045166299646472,-0.7487025934689688,-0.21345749570755557,0.1103225573477239,0.0972287632970481,-0.44588868478164645,-0.21174124249279538,-0.45626223077359157,-0.3343447189072977,-0.4735655217258578,-0.3990422883419385,-0.46416258336449806,-0.35204165424520556,-0.3531841679511017,-0.38581559394581305,-0.17150914763571296,-0.12402932087039645,-0.12560285813025085,0.10414012432126579,-0.007544370903850244,-0.3009245739668449,-0.25542937800419296,-0.15220359858082494,-0.022483928850916084,-0.25495495887980024,-0.41242303710519373,0.24960628296972548,0.19602006292438007,-0.16629021966344965,3
19.15,6.875,3.0,6.35,12.675,28.575,10.35,13.05,1261.0,468.0,185.0,400.0,759.0,1597.0,663.0,912.0,18.0,17.0,14.0,19.0,16.0,14.0,19.0,17.0,-0.5230981598509817,-0.5557731324387748,-0.2922369757311197,-0.505404928129009,-0.7150887790889046,-0.47338550620901004,-0.17791957154478077,-0.18521471007800727,-0.41767804039539674,-0.29449961197088725,-0.503673495284572,-0.22795044779250515,-0.44568817889096,-0.4544891389253192,-0.4839975058033973,-0.15201168098216428,-0.3106453077152796,-0.4064582305559529,-0.15107980340001403,0.012507500894815215,-0.1690712528590005,-0.1120761792336007,0.010511058973783391,-0.1966471046727608,-0.4801753125346029,-0.16307193650033944,-0.22595821368014715,-0.23986855592947337,-0.3539153508060037,-0.11351988342237156,-0.1603074099276478,-0.20737394371075615,3
15.025,6.25,3.95,7.65,11.3,31.4,10.3,12.375,993.0,408.0,230.0,516.0,805.0,1931.0,661.0,711.0,19.0,16.0,15.0,18.0,22.0,13.0,19.0,13.0,-0.397969569602062,-0.1978239883147827,-0.070137296325501,-0.3416110112110267,-0.3216297558797876,-0.313039439737476,-0.10499674383979186,-0.34655065477078467,-0.2642146600399923,-0.3286848169046555,-0.061172975461584914,-0.28302705738617645,-0.475207793814423,-0.20913239979726822,-0.10340578441848523,-0.24036411930221263,-0.47999318097044313,-0.008277940977325655,0.03993703764646986,-0.19558922953922905,-0.34884061419360807,-0.11444148169027825,-0.30335180863678435,-0.2717733023782509,-0.3461805116642839,-0.16230092510378882,-0.26328868835749486,-0.2722639771118181,-0.25961145841215094,-0.3664466718936449,-0.36166486794010294,-0.3314517339181421,3
9.875,4.6,3.875,8.25,13.525,29.15,8.525,9.35,619.0,278.0,228.0,505.0,992.0,1944.0,484.0,576.0,15.0,13.0,14.0,15.0,19.0,18.0,15.0,18.0,-0.358921528256565,-0.17831516910135117,0.0093177099519434,0.12644955321124302,-0.27327472096062794,-0.1870562318755459,-0.17702047143546992,-0.02199560994445949,-0.0280740021985014,-0.3889969170447875,-0.1531988871191629,-0.1559331866199753,-0.36974241187302814,-0.6550899456986832,-0.2905601238559141,-0.3027455539415968,-0.7978676989715974,-0.29034112526993683,-0.12461880984927014,-0.1922349365558513,-0.6839682151233661,-0.4038410912149917,-0.18461766335359317,-0.14155774404872598,-0.2615284724762,-0.19778569517577405,-0.37935403023915,-0.23879884447064306,-0.22427888278372965,0.10023239554571009,-0.288845567948856,-0.2880660455464896,3
6.35,4.85,3.55,8.125,12.975,34.675,6.975,9.925,381.0,311.0,240.0,544.0,915.0,2303.0,429.0,616.0,14.0,16.0,21.0,20.0,19.0,21.0,17.0,13.0,-0.19642781777617066,-0.3179426783477226,-0.03653725618577019,-0.21870489713556618,-0.4975278625621379,-0.18049580889056985,-0.3956493136148336,-0.13190175014384414,-0.35857420050581185,-0.08137233393189786,-0.09891658064157112,-0.29158591759026803,-0.6121852771461641,-0.32483770633656983,-0.4110116174964517,-0.3214833116093037,-0.8422814946929215,-0.5542721743676063,-0.42439303705905235,-0.1773279849849023,-0.488767727875831,-0.19142220190805403,-0.09076314987807131,-0.16115330111593032,-0.03903362441207148,0.19944416922151967,-0.2309611183014315,-0.051649522603554564,-0.3645867231480111,-0.15836794569307946,-0.29129570154956863,-0.3984350199334781,3
12.125,4.8,3.25,7.05,13.175,33.85,9.425,9.225,846.0,324.0,197.0,468.0,910.0,2184.0,612.0,615.0,22.0,18.0,16.0,16.0,14.0,18.0,22.0,20.0,-0.8943175017251223,-0.6919990448084486,-0.5789958625909557,-0.40710428486924755,-0.7990362784808145,-0.6882274063733349,-0.6466543674500584,-0.47573556264862293,-0.315304606987093,-0.08004556967878679,-0.23083446759352594,-0.15022325372443304,-0.45525011324140524,-0.22230900566112274,-0.3160316144695317,-0.20482407348529336,-0.783197827923053,-0.4936539479310985,-0.40644499682304985,-0.35887887138055363,-0.5509600146512663,-0.43433539023055245,-0.45611700631413465,-0.5069828816636067,-0.6351537545794481,-0.5219088666346878,-0.20538159624045754,-0.21305487661974062,-0.38944202960466234,-0.4018024084779286,-0.19572776811301465,-0.16496020819761875,3
13.675,5.35,3.125,6.05,11.45,35.575,9.675,9.25,918.0,305.0,184.0,385.0,794.0,2320.0,644.0,592.0,21.0,15.0,15.0,17.0,18.0,20.0,19.0,19.0,-0.5293921927722878,-0.43914353895813346,-0.22443282837640033,-0.23916221830109263,-0.30679002812008493,-0.4037772362966873,-0.17461517778055818,-0.5074041863085559,-0.34437669789697856,-0.3344681620825355,0.09082358494251504,-0.15661324946240468,-0.37919715841394097,-0.28329916054287857,0.10290945851591328,0.11180141926571341,-0.7525973820932135,-0.5971442104263042,-0.6117491831255004,-0.5205977084947906,-0.6216983298639607,-0.3445725580350909,-0.48116005337050965,-0.5002562567371437,-0.5599149358425379,-0.1888015301559447,-0.2561802725700111,-0.27271965655065245,-0.22558908348443524,-0.20917454020479626,0.12621738696368842,-0.0580808701364352,3
17.125,6.15,3.225,6.625,12.5,28.15,9.85,8.975,1092.0,418.0,206.0,454.0,833.0,1776.0,665.0,562.0,18.0,20.0,15.0,19.0,23.0,19.0,20.0,17.0,-0.5368261844193867,-0.25871304944516155,-0.19551497448071276,-0.09918717375551586,-0.49194025369290595,-0.30912992422244023,-0.29189238718668375,-0.08371415474539035,-0.5328082562838407,-0.24828599977007593,-0.18412711514477062,-0.19270234501737482,-0.793262058973905,-0.2995996821857286,-0.23145356925160682,-0.23152354278499948,-0.6517816540857448,-0.4127042413465767,-0.2814879099210669,-0.3845879133209858,-0.4671549308395271,-0.3321753640787692,-0.18847810349491192,-0.17402484825429174,-0.6819395494637353,-0.37392896958310384,-0.33821888533850125,-0.2700232086820661,-0.4233245149652578,-0.34074458317317574,-0.06687831535386973,-0.13651350702885748,3
12.825,5.725,3.475,7.3,14.575,30.3,8.175,11.525,814.0,370.0,217.0,480.0,904.0,1736.0,464.0,775.0,14.0,19.0,20.0,16.0,16.0,17.0,14.0,18.0,-0.19719433020233618,-0.14343350934518062,-0.1151685672117066,0.0793893958362891,-0.37302604912198484,-0.04526816001521318,0.0010393745131454806,-0.0510304313968639,-0.4370313810870528,-0.3407016747619914,-0.15556310442957175,-0.2538335332059267,-0.7463905352409052,-0.4928130955755273,-0.29055049701095925,-0.30325558216607873,-0.38255952514515656,-0.10229378080591507,-0.007656278391499509,-0.2938934696188786,-0.17907173568844745,-0.03871258018659069,-0.14488897153590435,-0.24392694637707651,-0.35363613837889557,-0.19557742515609478,-0.0931374889206108,-0.22257361960969535,-0.5266315824620179,-0.4654902769027167,-0.43705467252533586,-0.37719330665932316,3
13.625,4.95,3.45,6.4,9.7,25.3,6.0,12.75,841.0,305.0,216.0,413.0,628.0,1571.0,324.0,910.0,18.0,17.0,16.0,16.0,18.0,15.0,9.0,23.0,-0.3040979015704106,-0.2804305057812375,-0.20517278194762856,-0.012773467367195446,-0.36611420726959937,-0.09652449256751965,0.19247380014362392,-0.08071535916032936,-0.2772151542414993,-0.31793773361083194,-0.17322335432875344,-0.1421974532052829,-0.4024650314200372,-0.3014695523594014,-0.15711273168102274,-0.2184781915749003,-0.5340775158557585,-0.4690028150274623,-0.20031626036081757,-0.3508419473479486,-0.3598265215824323,-0.17919067434533048,-0.14074331030086865,-0.24725746743385438,0.008824715493780916,-0.23520623183228404,-0.13955289130391615,-0.21562717261207243,-0.6481446013660381,-0.2654377923984504,-0.1265675562963009,-0.14416568536352864,3
