0,1,2,3,4,5,6,7,8,9,10,11,12,13,14,15,16,17,18,19,20,21,22,23,24,25,26,27,28,29,30,31,32,33,34,35,36,37,38,39,40,41,42,43,44,45,46,47,48,49,50,51,52,53,54,55,Gesture
10.525,3.3,3.0,2.825,14.05,18.875,2.45,5.325,665.0,181.0,172.0,165.0,799.0,1178.0,140.0,362.0,22.0,13.0,18.0,16.0,17.0,18.0,7.0,18.0,-0.7057096737952842,-0.4315251940888313,-0.5166577856147234,-0.528672142989635,-0.3210007013074356,-0.4590731604794378,-0.2301607198736551,-0.36869530941015155,-0.2117492432600936,-0.32036001744989473,-0.18371510685645537,-0.38137845100014045,-0.6178791907360114,-0.5340115429588517,-0.47015628011339666,-0.3241818994712202,-0.47034795425833426,-0.638065143277695,-0.5525042013356737,-0.4114026059524361,-0.617878337334345,-0.7383309426508063,-0.6093589590106464,-0.44938288431279616,-0.11421008660125517,-0.011459031460145363,-0.26304122006734065,-0.06561180567231766,-0.443809646947822,-0.1662910136687691,-0.20833437722607098,-0.14351120397180508,1
10.725,3.8,2.65,2.25,16.45,23.475,2.575,6.875,666.0,232.0,176.0,151.0,1086.0,1546.0,147.0,452.0,20.0,16.0,17.0,13.0,19.0,15.0,11.0,21.0,-0.49729257143735783,-0.30103825968920456,-0.08871152722672819,-0.025415829907749328,-0.4889096141664859,-0.3646484425213137,-0.1195760084469513,-0.25613203155715064,-0.6392719603003617,-0.4106804391865827,-0.29304178456238467,-0.2575011379836627,-0.47547192448217823,-0.2462401473353254,-0.21393244998240615,-0.28164752216015077,-0.5479811231590227,-0.10967199315347011,-0.20849861255212693,-0.23460046285241318,-0.5358227728687377,-0.38009147033384844,-0.2051669302667738,-0.08436554829379371,-0.05684584170575396,0.22417077567072957,-0.1663702664933555,-0.08319433378667923,-0.5465415778278623,-0.381144919540721,-0.3612585232548409,-0.2952656118137165,1
10.7,2.95,2.575,2.5,16.0,25.275,2.45,5.675,608.0,174.0,162.0,165.0,1111.0,1625.0,156.0,330.0,11.0,14.0,15.0,14.0,17.0,17.0,17.0,15.0,-0.19216759932798222,-0.2648096716336121,-0.180783604165066,-0.22242657584422712,-0.3489049890160675,-0.2627447925418114,-0.16939635342846424,-0.3325923806499292,-0.7397555255907815,-0.6902058077686394,-0.662044233677552,-0.31818367325374564,-0.5028339408145247,-0.29266782514075623,-0.22370115625346912,-0.03026477034730867,-0.7318308364481962,-0.4660577093299634,-0.3349519510904375,-0.20865452847461924,-0.5411409947445485,-0.51175101766653,-0.21877428101997226,-0.18916880922958743,-0.251812764105578,0.09341614003162911,-0.08074407988246514,-0.288991645721043,-0.16841104234116608,-0.3042519471146342,-0.16470137274319013,-0.3181455212418421,1
11.05,3.125,2.075,2.175,16.8,23.4,2.45,6.775,596.0,184.0,119.0,129.0,998.0,1240.0,168.0,372.0,16.0,13.0,14.0,12.0,15.0,15.0,15.0,16.0,-0.12404221341377368,-0.2868482235435066,-0.20789306925535186,-0.30960127625086886,-0.554890002872745,-0.4353638364942828,-0.45380980940368193,-0.39399715815299324,-0.3737735655811582,-0.33545747333403386,-0.4563925848960892,-0.389504850486724,-0.3102076338422247,-0.04930719392263625,-0.37327045327086283,-0.2675252113917517,-0.32043300010186226,-0.299549377323861,-0.3093757739564163,-0.3043030323892749,-0.1470147777311424,-0.29737507077371594,-0.2604865738315094,-0.41224710306169304,-0.3583463502964342,-0.2714913622674897,-0.3983733535201762,-0.22791045056882284,-0.2665054857286843,-0.44848540885250765,-0.33149231623113634,-0.433138189366773,1
8.65,3.1,2.675,2.4,18.975,22.425,2.4,5.8,472.0,188.0,144.0,140.0,1263.0,1369.0,145.0,355.0,13.0,10.0,14.0,11.0,21.0,19.0,13.0,13.0,-6.107422428163424e-05,-0.5685457006019776,-0.21757740850009366,-0.30680412742247276,-0.39278606620462647,-0.3926141979415427,-0.42560073211875366,-0.28357515434723346,-0.12446076748574038,-0.4664796674357369,-0.09848029747554361,-0.5675973716603103,-0.17449421653745298,-0.3691846238384013,-0.25193182338419234,-0.29835413484060785,-0.8410334694394781,-0.7377932152744102,-0.6124156336121652,-0.34617276959766996,-0.5491750486519862,-0.6613507007352218,-0.42238244634755573,-0.42834048196465146,-0.1919330727040305,0.17832829393900518,-0.2934560026593557,-0.13334316787251074,-0.15019833503964772,-0.34166356333928355,-0.37014547797038483,-0.17654039356844248,1
9.275,3.425,2.5,2.85,16.325,24.85,1.925,7.4,596.0,222.0,132.0,153.0,1026.0,1487.0,112.0,446.0,18.0,18.0,14.0,14.0,16.0,18.0,14.0,18.0,-0.6977943124485242,-0.47266808417465855,-0.46896658904445365,-0.25856665635821297,-0.6297709334541705,-0.5064386340478211,-0.26935917982367114,-0.20486978828152225,0.009160772244691032,-0.5927315134929204,-0.01089394330914186,-0.3168283531394115,-0.07475564851389972,-0.5574540932060355,-0.040039946328144956,-0.06843852202211839,-0.30825735939236937,-0.5447080635060746,-0.02435756424863568,-0.33102960906618056,-0.2163426284707504,-0.5422984587174274,-0.04041376588424466,-0.4027941932049164,-0.17347863482464168,-0.0480825681601355,-0.14664501736666843,-0.3198162342134949,-0.4615789764495829,-0.37883976993510543,-0.2517626749022043,-0.1879211356754592,1
12.375,5.075,2.25,3.1,16.825,27.425,1.775,5.7,839.0,303.0,132.0,197.0,1083.0,1614.0,110.0,364.0,17.0,12.0,11.0,15.0,15.0,16.0,9.0,17.0,-0.8391023441706595,-0.6459277809694326,-0.613096675420348,-0.4169825233617741,-0.453437406041681,-0.42567420188139826,-0.3064690778700151,-0.3926986581908971,-0.09722742954895441,-0.4074743219716978,-0.06429122312658761,-0.19821849904784253,-0.29168489817753734,-0.5112611665230161,-0.17568923995065236,-0.07765784329086392,-0.49822129416956307,-0.5378394936724654,-0.3625395602554319,-0.3510299812439473,-0.5467572954011256,-0.5876078773530132,-0.5384644040987314,-0.2360557406847083,-0.20850075320204933,-0.1236966387388394,0.037311325672731904,-0.2409327134513811,-0.36877731755752513,-0.5245778335258837,-0.18003457781315998,-0.30330717548194835,1
11.1,4.275,2.35,2.7,15.125,21.225,1.75,5.8,710.0,265.0,125.0,169.0,843.0,1252.0,79.0,367.0,15.0,16.0,15.0,15.0,15.0,18.0,8.0,18.0,-0.5688167786549777,-0.390097053226949,-0.3815662436967714,-0.21287635163120283,-0.5405993309476085,-0.3863548055177645,-0.48447254681244734,-0.6105738812001175,-0.02966338939227617,-0.39310010345760255,-0.08378684009025981,-0.36318051360198,-0.26008112283937934,-0.5315380973164494,-0.1565944184914688,-0.3947949994890723,-0.2542566704568557,-0.3292098740440339,-0.27430201261958415,-0.4499824048319577,-0.24980593824289957,-0.42995746645805055,-0.2202015620596136,-0.337607475078783,0.1642552868558566,-0.05418116416221039,-0.3488409733274974,0.07764571008322933,-0.5091844934830236,-0.4101482307123877,-0.25611950836264585,-0.24863023426483916,1
7.975,3.025,2.15,2.05,11.875,17.2,2.15,4.825,475.0,193.0,130.0,126.0,777.0,1029.0,116.0,285.0,16.0,19.0,12.0,14.0,22.0,17.0,15.0,15.0,-0.23846024112962838,-0.16696043092165816,0.18299236250098963,-0.1809653106699565,-0.3160387469283183,-0.14918426009180483,-0.3487379982984166,-0.17126777178645214,-0.28254315199780583,-0.15041727567744304,0.024807198223729305,-0.07552201234017156,-0.23527499915796646,-0.37572472775302906,-0.213608349570554,-0.17470591371567687,-0.45290747589540664,-0.15990046414330905,-0.1378978339405262,0.0065835165699647535,-0.6779079136695314,-0.7970529203041311,-0.5620062234975731,-0.26145680925770465,-0.11383964176921774,-0.042026377560550957,0.10996425930404405,-0.1459087480748486,-0.3441064684698367,-0.24871036408828898,-0.2511522558190233,-0.2005906356466424,1
8.875,2.3,2.25,2.275,14.525,18.25,2.325,3.35,559.0,142.0,130.0,128.0,978.0,1203.0,168.0,200.0,15.0,16.0,15.0,16.0,17.0,16.0,17.0,15.0,-0.3755814117053342,-0.2100226542817035,-0.050663550741157436,-0.21593638867285783,-0.44295120922699355,-0.37790992298279574,-0.18648518067288833,-0.28824174625534665,-0.2681700637634396,-0.14072475460792144,-0.3556683635959679,-0.18905233190005702,-0.3252148327172718,-0.3457856593239537,-0.48093794157987546,-0.3166949145018064,-0.3834218973698249,-0.3084505976517901,0.00959941961146634,-0.34888292397533543,-0.7440425736358481,-0.5419561892423298,-0.49773155816209325,-0.47155501334129335,-0.630758216259112,-0.46374407166539,-0.4228835679720622,-0.4067014471209502,-0.1929951791920909,-0.05669687217205577,-0.012139339656701697,0.0031364309053095694,1
10.625,2.45,2.2,2.4,13.8,16.725,2.575,6.125,717.0,148.0,121.0,125.0,875.0,972.0,172.0,394.0,19.0,17.0,12.0,13.0,18.0,16.0,10.0,19.0,-0.4509479933461581,-0.39457735450638903,-0.21537817875330215,-0.43087295237705986,-0.43597490272670003,-0.24711888595261802,-0.39227914873757314,-0.3112032022734736,-0.4170721789189999,-0.4387960112353166,-0.5322612322601055,-0.1785920428992301,-0.3402806779915224,-0.2660899617930606,-0.2096264240556883,0.005519442279231385,-0.5075300813113695,-0.5756254065034909,-0.26146041988599417,-0.20542881587269654,-0.36067203206355225,-0.5903624271424359,-0.24395219812056937,-0.17100334942755085,-0.6035497925536533,-0.34545568239276536,-0.19777339526923132,-0.0864965569524936,-0.41658478242913527,-0.6059684611429547,-0.15150271575577237,-0.16001165048869728,1
12.325,2.625,2.725,3.0,18.2,22.475,1.725,7.5,824.0,149.0,140.0,165.0,1053.0,1153.0,111.0,475.0,15.0,17.0,13.0,13.0,13.0,11.0,12.0,13.0,-0.5442193907848605,-0.37859938744331617,-0.1890446217331264,-0.3148272816777461,-0.1480678318493217,-0.07997843012338558,-0.08270067283501419,-0.22368856836527595,-0.4898715477569334,-0.5040283333282073,-0.6080346855060986,-0.38601818321643494,-0.4526802661845836,-0.3934757845238715,-0.617051378892817,-0.39077203025058804,-0.6765530120878557,-0.5869731955256751,-0.7818891822729762,-0.47567476667482245,-0.788617061401245,-0.8153867621684447,-0.8512606906476374,-0.7600825647855939,-0.45324240423749607,-0.18283120322065624,-0.0381431670372964,-0.06354012486857116,-0.4400841938607427,-0.4265069043911243,-0.32974925308370096,-0.1388335939128798,1
11.425,3.325,2.275,2.625,16.0,21.925,1.775,6.925,738.0,194.0,110.0,125.0,952.0,1114.0,118.0,481.0,15.0,10.0,10.0,10.0,14.0,12.0,16.0,20.0,-0.5243464100321241,-0.4004079369740115,-0.37577951909276264,-0.2592608019802972,-0.3192749132206346,-0.25646965685636863,-0.10263798508514763,-0.30125627169600483,-0.08011278302072664,-0.3176068243065855,-0.33164809351516605,-0.15688920242643692,0.018499936493894264,-0.4532182906896449,-0.39537715995858375,-0.16087042328789136,-0.426444285487346,-0.6038087853198217,-0.5117138622020904,-0.47619631349099634,-0.321955772388886,-0.6436228679263408,-0.47336079209818904,-0.5484625640788273,-0.3222180736007949,0.05143277576863977,-0.11550666862863988,-0.18644970751015483,-0.7045626246024204,-0.45701232855666324,-0.366240248014019,-0.21794208441327484,1
10.675,3.025,2.05,2.55,19.2,20.9,2.1,6.45,707.0,161.0,107.0,145.0,1387.0,1388.0,128.0,378.0,12.0,14.0,11.0,17.0,19.0,19.0,17.0,16.0,-0.38015203879966764,-0.22444199285406155,-0.05557366237296091,-0.15407719484186475,-0.22119969353110852,-0.04771576148262695,-0.11785005399281111,-0.5087084997106995,-0.38609296403774956,-0.2589941382235766,-0.13687109233684075,-0.22707563221421959,-0.5319998067638912,-0.49428232779031994,-0.45183622958649894,-0.2610683211364431,-0.8923091877956254,-0.6986145694632501,-0.48222086569195405,-0.4004783395314384,-0.6412991426608762,-0.5109132252567047,-0.36147574827388734,-0.373469665106997,-0.393524902906569,-0.19193217720896463,-0.2930993296782904,0.0017328962115893704,-0.3719926535469177,-0.4457367109476926,-0.2178849767826365,-0.24617222487138624,1
11.975,3.5,2.55,3.0,18.625,19.975,2.125,7.225,685.0,218.0,145.0,183.0,1164.0,1266.0,130.0,439.0,13.0,16.0,15.0,15.0,13.0,15.0,16.0,17.0,-0.28376856991755073,-0.36102955343831084,-0.450130741234235,-0.02858554633912062,-0.533189707154258,-0.24875176526520576,-0.1595209750425702,-0.16016648264698696,-0.6205840078811117,-0.5294297503784228,-0.42185449592614493,-0.4795187101642101,-0.6464808249266432,-0.5517674917118334,-0.6454048710088444,-0.4568592903629085,-1.0258778972951803,-1.0761879160477679,-0.8631438967123577,-0.6499184160099024,-0.588836897332058,-0.7141004411919325,-0.45932846850176906,-0.47829126326253274,-0.35027446108447846,-0.30762232015408403,-0.07807837893924478,-0.24893047261775092,-0.37387528168833223,-0.33891040372952097,-0.31776169440731644,-0.21350612442022954,1
14.325,3.825,2.5,2.075,18.175,22.975,2.325,7.85,992.0,252.0,122.0,125.0,1141.0,1384.0,142.0,494.0,20.0,18.0,15.0,13.0,19.0,17.0,12.0,20.0,-0.7952477730759491,-0.5188873653251084,-0.28820718937999307,-0.07235331431809569,-0.6176343838974043,-0.3753629161063987,-0.19282784789856897,-0.23324897251629753,-0.42198717992698137,-0.59792186292471,-0.5489362079124297,-0.5163996210592604,-0.34229785463008777,-0.30232348292572697,-0.5094495853967178,-0.23612903658609044,-0.6149831942222028,-0.6644541048012572,-0.35753103417285015,-0.43805971748569217,-0.48952414444943726,-0.7384098855190186,-0.3985426771265932,-0.5915408661269792,-0.20371656450660955,-0.045830283403693065,-0.019109693529907778,-0.14719681600935203,-0.3792265015539626,-0.10342822832502872,-0.43849406796193335,-0.2736115880179562,1
12.625,4.225,2.95,2.675,23.4,31.975,2.025,7.225,880.0,271.0,148.0,140.0,1344.0,1644.0,109.0,457.0,17.0,20.0,13.0,11.0,15.0,11.0,10.0,18.0,-0.6333807168088668,-0.3236339660899727,-0.4559409331182634,-0.21974814527325912,-0.6345791709491759,-0.47777991321815594,-0.5940115792923717,-0.3759681863065487,-0.49439725034039844,-0.4422618163132163,-0.6835255150137283,-0.5532982688948593,-0.37366303829930275,-0.47639573841368865,-0.5217363014517984,-0.4819097012207593,-0.5341481383264214,-0.6087011106802092,-0.5745615740469799,-0.5966092243276727,-0.49220771392865065,-0.5314714523077724,-0.6362192190141825,-0.6135532516000478,-0.06841928524196182,-0.17777690142690034,-0.19529632140738207,-0.2685358749634676,-0.4946257463130456,-0.31958765657642985,-0.026771482074221715,-0.009085319436918171,1
10.95,5.25,3.875,3.85,27.425,31.7,2.575,7.125,751.0,308.0,218.0,202.0,1408.0,1616.0,142.0,493.0,19.0,16.0,14.0,12.0,16.0,14.0,12.0,18.0,-0.24780505794400837,-0.20512308879872182,-0.17022469909387908,-0.005260859254858907,-0.43466830949300417,-0.35624410332018136,-0.5186332725997579,-0.1493080875528553,-0.5502567302327532,-0.5275511469826483,-0.5774835179972219,-0.4378059748026959,-0.41532124740481347,-0.4655844314841039,-0.5092869578868207,-0.2766074390033446,-0.41860358157932687,-0.5264125995537928,-0.561220085091772,-0.2970989480026451,-0.3229303967927662,-0.4404540381588517,-0.5642596557424219,-0.24826264287136246,-0.14779525932664056,0.0777855823234527,-0.27341911118920564,-0.10774856571593756,-0.8052774916118246,-0.7242470838516498,-0.422118330045438,-0.31432411421871326,1
10.475,3.9,4.275,4.35,26.35,33.65,3.25,9.55,728.0,240.0,246.0,255.0,1540.0,1930.0,209.0,649.0,14.0,16.0,14.0,13.0,13.0,13.0,17.0,21.0,-0.3395263781572495,-0.19160876894861173,0.015899707518996047,-0.11247388375738084,-0.4860343167168365,-0.43785017866523135,-0.3606857264568623,-0.24090801647774954,-0.5003796046080973,-0.578388225919367,-0.5318856042417406,-0.3579109365246885,-0.5662358152934681,-0.6701907901778799,-0.5490393432813068,-0.491337851750724,-0.7922493305378939,-0.9338853426981989,-0.8279348884875982,-0.539419528719761,-0.4504850660865666,-0.6805301856964374,-0.6315894323777284,-0.26596792296809274,-0.46334507460876007,-0.11995615763430457,-0.150426778365749,-0.08236570130665057,-0.4766178124914653,-0.20324473397161544,0.13243889185439306,-0.05499888711446184,1
10.975,4.2,3.375,3.025,17.8,25.6,2.35,9.175,695.0,283.0,183.0,149.0,1013.0,1361.0,156.0,636.0,16.0,15.0,14.0,11.0,13.0,17.0,16.0,20.0,-0.4560036567806252,-0.5720227163455379,-0.20715937916958227,-0.21963788909457263,-0.3744933418435379,-0.22998065592287922,-0.2609632231208177,-0.18492517774816833,-0.235841361170999,-0.344375564028008,-0.37195791781601,-0.19092301657922475,-0.3858698706218357,-0.4737411541452583,-0.46012092503083524,-0.42131562378557696,-0.2742343722462018,-0.3982399616714704,-0.4120742227499475,-0.1092210077582003,-0.2833480404333672,-0.5272530906511204,-0.4455996183544306,-0.3233632397047279,-0.3761122468469434,0.02998854614462049,0.12827345464972723,-0.0328667354216696,-0.5850798486772281,-0.431680174305409,-0.2072920666295195,-0.1447924522681391,1
11.575,4.825,3.5,3.475,16.5,22.45,2.125,8.125,727.0,305.0,158.0,186.0,968.0,1259.0,122.0,535.0,17.0,15.0,14.0,18.0,18.0,14.0,9.0,15.0,-0.5400200463125101,-0.21070675053926394,0.0387001049058304,0.09803765945801082,-0.3584856848668078,-0.1280144762212585,-0.1850768961348721,-0.29071583391324207,-0.028607312785920224,-0.006517394760785559,-0.29982269624422786,0.005234014024566791,-0.2843780219725484,-0.21156184545087978,-0.23291987811913367,-0.2460542860266581,-0.278522682845198,-0.16181662310799583,-0.18049749288204156,0.08972511294476734,-0.1605259871562865,-0.11055764598661316,-0.25424389312192974,-0.14150163037195418,-0.1749662242002465,-0.0480072634735092,-0.021678144536535247,0.20664463550105622,-0.3590596132449682,-0.09004693352223991,0.09100954513771391,0.09199517153875268,1
8.825,3.925,3.55,4.2,27.175,34.45,3.075,7.35,581.0,194.0,192.0,220.0,1745.0,2071.0,188.0,486.0,18.0,15.0,16.0,14.0,18.0,18.0,19.0,18.0,-0.5496889012565203,-0.21920084441477528,-0.10696766211187637,-0.07482626808713494,-0.10487371648174297,-0.1395267450973554,-0.558068159188695,-0.15961002168243651,-0.2779900378280441,-0.3174070968361588,-0.4389847815653496,-0.3285751571257463,-0.31382210271215355,-0.5147536404948416,-0.5127271194807798,-0.317188122066859,-0.42019572713366377,-0.2961201165681893,-0.33723134664852833,-0.2639974708041688,-0.3470460298189273,-0.4175187601983978,-0.4084251079056482,-0.40565804945080375,-0.5834629358643587,-0.46008691125884055,-0.3024452392274167,-0.13848671901425014,-0.2916864556898099,0.030141941055167806,-0.019271793785576745,-0.21307303280666195,1
10.175,4.025,3.475,3.35,29.725,32.875,2.35,7.725,563.0,249.0,216.0,207.0,1815.0,1962.0,144.0,540.0,12.0,14.0,15.0,15.0,17.0,15.0,14.0,20.0,-0.20553801790287898,-0.48013604283966654,-0.44958689021008386,-0.25045310244299696,-0.3582056911304062,-0.3118332724923137,-0.3875192997471102,-0.44541335443720415,-0.6433645010000184,-0.6258543567385367,-0.4892473327496158,-0.30433806188072254,-0.4731753187924291,-0.40875238928278734,-0.38953072174474956,-0.33024531648959,-0.4973093389583694,-0.5136215890078608,-0.49385731287534756,-0.40285395980174005,-0.4966483221067706,-0.5185244963537632,-0.5370603731171416,-0.47786868010034284,-0.4633307834921543,-0.35140088066189185,-0.02201399261493001,-0.18007077448793293,-0.41459014581792836,-0.22941184610904006,-0.22013227032593208,-0.28121074203745705,1
13.6,3.625,3.45,2.9,24.775,32.575,2.375,9.075,731.0,226.0,183.0,171.0,1400.0,1775.0,126.0,572.0,14.0,16.0,12.0,13.0,16.0,12.0,12.0,17.0,-0.2289378669629145,-0.5853852424964194,-0.3023138359634475,-0.09841119854396545,-0.405611270010329,-0.38728352216515155,-0.5293412440956801,-0.19415894395166208,-0.5758894592449125,-0.7205217657627667,-0.6374567330657802,-0.5702784331808544,-0.2873690317246718,-0.3507850704462961,-0.34476804909893616,-0.35437497281406316,-0.6100177832189125,-0.6118259216555575,-0.699008711318608,-0.4728213307301819,-0.5229122021940368,-0.6715899296904779,-0.6159396614018032,-0.533096219023829,-0.18480887517903802,-0.22765417131346097,-0.22440997789383008,-0.0715070508591345,-0.5632952421958146,-0.4425431401434721,-0.44047364908593123,-0.35117784649764283,1
12.15,3.475,3.125,3.025,23.525,26.1,2.225,9.6,737.0,206.0,176.0,189.0,1364.0,1614.0,131.0,581.0,18.0,15.0,15.0,18.0,13.0,15.0,10.0,16.0,-0.38910208105073624,-0.4258478480793677,-0.4136641526240338,-0.08959786941348627,-0.5660578417792305,-0.4555456342809623,-0.6151594492689937,-0.414857766672478,-0.37784174101445905,-0.5241173229020605,-0.32507227900230357,-0.5945243657834893,-0.5991218421424862,-0.5573694643905549,-0.4690393522441305,-0.5809045819748595,-0.4073192490023759,-0.5013518510723971,-0.39917118767253795,-0.5930897778845027,-0.4449355254364634,-0.6143740663853549,-0.4661272498408286,-0.6286950952971347,-0.18197570862018092,-0.1711607525172799,-0.16668513374354552,-0.28126094175191685,-0.6838246899176407,-0.7734646469343592,-0.5404264232443514,-0.38244904420183234,1
13.65,3.075,2.575,3.225,20.0,20.05,2.8,7.45,939.0,171.0,150.0,188.0,1190.0,1215.0,174.0,462.0,21.0,14.0,15.0,15.0,11.0,15.0,17.0,15.0,-0.47035175441851323,-0.16696985021038696,-0.2395229599536394,0.04511695143711118,-0.3296910262062945,-0.14199204771457563,-0.4557634775172028,-0.11033756057682878,-0.34717172510943767,-0.39619295347668626,-0.21838917294237514,-0.4453199620622016,-0.4512831539491034,-0.5225984359684631,-0.32604437300399647,-0.41399168428565475,-0.4960239057213664,-0.3547851913511281,-0.33203935316751154,-0.1644031155825489,-0.27784956876380074,-0.30793953837566623,-0.27112185596160376,-0.22873389917602055,-0.5207557662403519,-0.3001927851040123,-0.3195491913301772,-0.1253998627124414,-0.34383924546564576,-0.29217547096802676,-0.5477230367921467,-0.22526364854231987,1
12.675,3.75,2.8,3.35,21.125,27.7,2.5,8.475,831.0,234.0,152.0,194.0,1419.0,1648.0,157.0,513.0,16.0,16.0,13.0,15.0,15.0,13.0,13.0,18.0,-0.5278614537096283,-0.37217257500660744,-0.06198757232119445,-0.202665723200964,-0.42903952103575366,-0.01728449501409166,-0.27665038906905093,-0.3341274235745392,-0.22651936568914177,-0.38258218080715883,-0.525470235880903,-0.15184415913814953,-0.5236661592186258,-0.5434975710786452,-0.6823950032588388,-0.41374797783532796,-0.7350434939177444,-0.5956824324039353,-0.7136749700782995,-0.5421047564447662,-0.435507269411825,-0.426768158940333,-0.6787033266419942,-0.4479069533587496,-0.3152179520088735,-0.02607202527678154,-0.1495182163255882,-0.03533901814428393,-0.36082604517923034,-0.3709776202236774,-0.33991714982429616,-0.37460460201357,1
11.3,2.6,2.325,2.825,19.475,24.425,2.2,8.175,753.0,174.0,124.0,171.0,1125.0,1296.0,137.0,528.0,17.0,15.0,11.0,12.0,16.0,15.0,18.0,20.0,-0.690602288285133,-0.404972914127791,-0.27607161212890385,-0.35867935683448415,-0.38223365217528754,-0.07678193356793424,-0.09761002335562707,-0.23618277312098557,-0.2922955864462557,-0.4610718941125343,-0.16077327963180096,-0.2917601921694417,-0.45580372392413554,-0.5244988166947591,-0.20471165199024452,-0.07259191096148321,-0.3445267099594082,-0.48272186336263156,-0.34461124085957096,-0.007034558632827705,-0.2061948044423465,-0.5603644213641492,-0.3278008962575262,-0.17707223218200294,-0.2817996689716964,0.26597482250858245,0.07000124629795584,-0.1576092724400823,-0.35353454830267594,-0.028603877715522096,0.0489339059481139,-0.3014005343010945,1
11.2,2.925,2.625,3.275,19.925,26.625,2.325,9.75,713.0,167.0,138.0,169.0,1144.0,1450.0,139.0,577.0,19.0,11.0,9.0,14.0,16.0,15.0,14.0,15.0,-0.6320939980204958,-0.4928372278236395,-0.421202125121972,-0.5132449946795858,-0.3180572332032681,-0.4445118051415169,-0.4216170110622967,-0.26252577180786557,-0.2187992505906857,-0.4206964791629203,-0.24617156618026523,-0.21898780695059464,-0.12084132405652823,-0.27040254896784643,-0.20252448670627266,-0.2175617193314008,-0.48315496808299363,-0.5095151114700187,-0.5339851776395624,-0.2552258187608933,-0.2865893020533931,-0.45881104856566224,-0.47451235436210887,-0.23369800153964995,-0.3330296172186436,-0.20129237361130303,-0.3381855570739713,-0.08466557888833726,-0.40634542193510365,-0.47742847983565884,-0.4518103638741604,-0.16949984268693896,1
9.275,3.3,2.775,3.475,24.525,26.825,2.875,8.3,591.0,188.0,146.0,179.0,1567.0,1637.0,163.0,556.0,17.0,17.0,11.0,12.0,18.0,15.0,17.0,18.0,-0.22798706584146822,-0.3707151927271548,-0.07888904317640551,-0.2696041296049822,-0.5867686345411655,-0.6527145520540475,-0.47317567848562136,-0.3790936280064984,-0.1853465164185701,-0.5041351709481809,-0.30417009547543267,-0.4245552762634821,-0.214077041786042,-0.5451071569944087,-0.3687223895538338,-0.42798869259924854,-0.5278949133382455,-0.6221093650407719,-0.4201483299664653,-0.49861956206823627,-0.4403696097080507,-0.6165019423004797,-0.4638651952114803,-0.49658903447333475,-0.40274391106126967,-0.24257400402781548,-0.2498152624800341,-0.04048743850653467,-0.3401339056748997,-0.24952147903197933,-0.10472273639509536,-0.1529182560024707,1
12.5,3.175,2.6,3.15,22.85,24.025,2.425,7.95,750.0,173.0,136.0,152.0,1425.0,1230.0,145.0,463.0,15.0,15.0,12.0,11.0,17.0,12.0,14.0,14.0,-0.35059080080156524,-0.28282884651797346,-0.21902844182182035,-0.3567664420397754,-0.31765941216554655,-0.39802727108483693,-0.3439570609648463,-0.5255210171686985,-0.050525575985111676,-0.42205846035578376,-0.16943178596935607,-0.3865115063495238,-0.2616898516736646,-0.5686317553542972,-0.39386688337634446,-0.5523123719481959,-0.5352301247158449,-0.48241937901451915,-0.5546694401483302,-0.3524156647440136,-0.29032385762612944,-0.5940461209161891,-0.4618692825462042,-0.37813114913779755,-0.3133388772934193,-0.27067007390718556,-0.22388620864534237,-0.11971569323630192,-0.05001486974173419,-0.19315461950990426,-0.08969692767210537,-0.3351958405353766,1
14.075,3.5,2.825,3.15,28.425,33.675,1.675,7.475,895.0,216.0,171.0,184.0,1826.0,1868.0,114.0,412.0,19.0,20.0,11.0,15.0,18.0,16.0,17.0,17.0,-0.4570673539020589,-0.5486855794034192,-0.19714590179357452,-0.3948384722190513,-0.2690961635812594,-0.2389198781985166,-0.1831576328260952,-0.31758082396223003,-0.4190683302102762,-0.38885332709222115,-0.42131178418568166,-0.4708342363891023,-0.6038875791699598,-0.6376212164943171,-0.5656815772744034,-0.5432831128389005,-0.8697148974747766,-0.8677007038847246,-0.8567876090568305,-0.7169093692070289,-0.7999127462739002,-0.8973857278033835,-0.8368742916382863,-0.7721049496560644,-0.48379992012072043,-0.2854183706394787,-0.2656631706281687,-0.12853955415855386,-0.3368504783264709,-0.4294525070316628,-0.47707812537290273,-0.1178708107426352,1
12.25,3.6,3.225,3.4,25.925,33.25,1.8,8.35,788.0,222.0,195.0,193.0,1481.0,1870.0,99.0,466.0,18.0,16.0,14.0,13.0,12.0,15.0,8.0,13.0,-0.40469488007382687,-0.239823278487451,-0.17026243030059088,-0.33120170564394263,-0.3249341395479387,-0.3671231269393072,-0.23296770710660225,-0.34279491339144874,-0.36973150678054706,-0.5376460159098709,-0.3493922039921671,-0.3611329364783699,-0.37331962017858683,-0.5391926268956473,-0.3384944125382604,-0.3516391887642579,-0.30817542445379925,-0.5042057663096989,-0.31202966827527845,-0.2553009351179627,-0.22711412545708975,-0.6034217940391439,-0.2710740988940349,-0.3786763325166569,-0.010255879206078304,-0.1301111025260804,-0.10378917881078838,-0.10183047496396745,-0.2074057542166676,-0.46571750174343673,-0.09734889859227645,-0.2767922759706597,1
12.975,3.075,2.4,2.45,16.975,21.25,2.2,7.85,832.0,166.0,123.0,150.0,967.0,1239.0,133.0,471.0,18.0,11.0,11.0,13.0,16.0,17.0,15.0,19.0,-0.2986448036394931,-0.18092366132523963,0.026069112821329014,-0.1644715748785181,-0.40160645417961355,-0.39012806111032367,-0.4823631617772683,-0.4916334655907002,-0.0826498154983081,-0.45110966794456797,-0.23171969840922957,-0.45448957140837054,-0.2537713564431114,-0.5381456777504904,-0.14573350071996524,-0.5479574168051741,-0.23010311268632935,-0.2969296927800258,-0.23291380294749287,-0.47631977230396916,-0.24932193856912027,-0.3770607601598013,-0.21442827827539546,-0.7047886928311616,-0.37519176823135886,-0.07883261236211113,0.028018703427306026,-0.20319954215262392,-0.3467660143305335,-0.05334552887256027,-0.05329152841841578,0.14779581014023124,1
12.825,3.375,2.15,2.525,18.825,19.45,2.425,8.2,918.0,216.0,113.0,143.0,1155.0,1160.0,147.0,613.0,20.0,19.0,11.0,14.0,17.0,19.0,13.0,21.0,-0.7376890954363767,-0.43616754931939905,-0.33028965662966014,-0.1709822350568158,-0.4783987692809068,-0.24193220520917638,-0.3046955577800234,-0.2586961412243449,-0.19268518069223745,-0.4393127118767717,-0.22224342594966423,-0.3187853154786954,-0.24206311677319953,-0.4302317227100109,-0.01521959836767331,-0.2665224850346639,-0.4264818334746604,-0.5355296217236653,-0.32966231964172127,-0.2493099956687338,-0.27066871518972035,-0.657981043128511,-0.2557720220209401,-0.37750027248474505,-0.4283024106961731,-0.08183850184654493,-0.11664198816617503,-0.12358095080717989,-0.6084479859158608,-0.06941715837857511,-0.04938793851446665,-0.16327940688453232,1
12.975,3.75,2.675,2.95,19.325,24.075,2.0,7.1,894.0,232.0,161.0,171.0,1194.0,1472.0,120.0,487.0,20.0,16.0,14.0,16.0,16.0,16.0,15.0,19.0,-0.5478200467470116,-0.42081687060314016,-0.4451718595656601,-0.3590815224148231,-0.8421690520402129,-0.6842172617809555,-0.8092121685986715,-0.5452297455813895,-0.34452246335425096,-0.3399538304398959,-0.30499389808074445,-0.35883938990248926,-0.28069692638250837,-0.26663549995717134,-0.2152751758764451,-0.3533775751871459,-0.4860039594198939,-0.38761942573966707,-0.4475067533689099,-0.1983693552056296,-0.41604633049851586,-0.3781487019987434,-0.34312708230315125,-0.19449886245066042,-0.13705975250711314,-0.05873777682057497,-0.07880746540684856,-0.10372187751997039,-0.5314651404690821,-0.12307992783223415,-0.17801222873175132,-0.16900421838127297,1
10.725,3.825,4.05,4.4,24.75,35.325,2.475,8.7,715.0,233.0,214.0,240.0,1382.0,1847.0,153.0,554.0,19.0,16.0,14.0,16.0,12.0,12.0,19.0,21.0,-0.5120498980948807,-0.5374628091265938,-0.4062599805804708,-0.5419395992676044,-0.578044295593405,-0.36185099059219406,-0.21474032021697967,-0.07881819380095893,-0.475566073681803,-0.680568652836047,-0.517634786140135,-0.4496091006774408,-0.48094486733766006,-0.6124744944771875,-0.48781222558052106,-0.4548025007670285,-0.4998958209989846,-0.6847836824707582,-0.5306808055437322,-0.439110837337288,-0.3376445144308476,-0.6791790505913123,-0.43326261835467106,-0.4611302589118708,-0.5458116856898999,-0.26498998172970273,-0.28159300433849666,-0.37733735043682837,-0.5103085046260577,-0.3094613283970484,0.18364203517180036,-0.023883221455298205,1
12.675,3.2,3.6,4.325,22.375,31.8,2.1,8.0,854.0,195.0,215.0,247.0,1390.0,1896.0,100.0,548.0,22.0,14.0,17.0,17.0,15.0,17.0,12.0,20.0,-0.45254844113728404,0.12004838766832993,0.18816295506017,-0.01611577424840496,-0.3796934452299408,-0.19756702854542135,-0.16578311079021854,-0.2472454142641726,-0.5774056662788378,-0.6935544315497723,-0.5166025979222927,-0.5246781139939334,-0.488620392313697,-0.47720703835115214,-0.3798685076101927,-0.3927901901581386,-0.6744962498244061,-0.6795637385169555,-0.6248463455294814,-0.5773953735850096,-0.6056415602541554,-0.6756473422041518,-0.5608817196692806,-0.5674393267437454,-0.1692823898310685,-0.10341909444958104,-0.41691924722722923,-0.21298187184463604,-0.3671751298905136,-0.17362288410915103,-0.09997027337386301,-0.24684997883598825,1
13.525,3.025,2.15,2.5,15.8,18.925,2.875,9.9,948.0,198.0,111.0,134.0,941.0,940.0,154.0,679.0,18.0,15.0,14.0,15.0,14.0,18.0,12.0,19.0,-0.6875034336855578,-0.34194724703052,-0.16278397766194105,0.0024376031322605844,-0.6906131512278856,-0.40008380157692813,-0.011200027938729243,0.10563863238529766,-0.16035506259312754,-0.09990986672688772,-0.25120830222023105,-0.11401313804638502,-0.09907202346562739,-0.29828149047427543,-0.2070590503666754,-0.34715324704273837,-0.4717283865263069,-0.5209114923399647,-0.4596381736901473,-0.2937763066344552,-0.06366117647841221,-0.38140923008732003,-0.20914032633418866,-0.2746001814388252,-0.1764651353420971,0.13751011362448048,-0.1607263649138538,-0.3660812318777499,-0.4900366473300285,0.04511619052172911,0.044253892967223936,0.07399084771807266,1
10.65,3.95,2.15,2.05,13.975,17.325,2.025,6.825,673.0,260.0,121.0,140.0,986.0,1210.0,123.0,423.0,12.0,18.0,13.0,14.0,23.0,19.0,8.0,19.0,-0.3915318278759328,-0.13045137414446564,-0.2974158318195124,-0.10274027617415982,-0.5629335930759201,-0.2738402646627587,-0.4157814411910421,-0.36138178896277,-0.12217800424158619,0.12322151133640394,-0.32136001992558844,-0.3717330309779459,-0.31047606528702604,-0.08067989356119862,-0.4750178953789632,-0.20444548056336287,-0.6681825244311907,-0.19458511321589278,0.01742870863377215,-0.0005506542182383611,-0.4621678942890545,-0.09483770595585277,-0.2252211028393565,-0.19224523389363768,-0.4130438281943035,-0.028986194421962368,-0.1903515118592862,-0.27757300770600923,-0.6959171224119286,-0.7739862357627331,-0.6111692028163634,-0.3354046269959484,1
14.525,4.65,2.35,3.15,18.2,22.875,2.6,5.5,948.0,318.0,133.0,179.0,1008.0,1249.0,133.0,323.0,14.0,21.0,12.0,17.0,14.0,14.0,13.0,11.0,-0.43771344835194625,-0.20489565908393156,-0.1515115760553726,-0.18081316624596164,-0.7141691992919353,-0.5036574840261545,-0.512384241883362,-0.2758535146361904,-0.236817678697818,-0.3380787101621063,-0.35580799671059166,-0.3808031275481186,-0.2482658797503241,-0.09237719468069147,-0.24834615045707498,-0.30906916404161866,-0.5039007396278895,-0.6735210412851629,-0.4581699273319644,-0.5948468724442106,-0.40573013632530164,-0.38177788078441394,-0.49846522123695663,-0.3443522731486797,0.05202582412242159,-0.47792471088199745,0.03705658955508357,-0.24233220229678612,-0.13354828081986764,-0.26348024885006105,-0.03761553014797547,0.01628907040603644,1
17.65,5.25,2.5,3.3,16.175,19.225,2.65,7.85,1193.0,354.0,152.0,213.0,1002.0,1274.0,132.0,508.0,20.0,14.0,15.0,20.0,16.0,15.0,14.0,17.0,-0.4515084561145445,-0.1027120417680717,0.2000821584215151,-0.032497915693416105,-0.624668973952728,-0.46861340512502186,-0.35377437658948424,-0.3189146067568547,-0.3428979473136973,-0.2991825969790092,-0.09905794625792606,-0.29084052655055054,-0.4343281786671094,-0.03146858454308569,0.23168234688362987,-0.12120533291683268,-0.43991043902761945,-0.5287445222985059,-0.24151184416412128,-0.4023829499049226,-0.7347706660698475,-0.7680948526459287,-0.5621649487329128,-0.4779448086375115,0.04358617703144553,-0.6040787311510605,-0.0010366725767974297,-0.25994816408895055,-0.33208136034804187,-0.25515194858209433,0.013185166556156282,-0.18927509694497927,1
17.425,6.475,2.75,3.425,15.825,17.175,2.95,8.15,1125.0,421.0,137.0,205.0,1005.0,1116.0,165.0,509.0,18.0,20.0,11.0,11.0,16.0,16.0,9.0,16.0,-0.45429089696019925,-0.15115922249224711,-0.02217486390337363,-0.22190325880375308,-0.6816524249834608,-0.6033158803411601,-0.5667982349346079,-0.4399655731677384,-0.04927246428518873,-0.548318127712321,-0.10069170376849665,-0.2415574620231535,-0.4235598633003625,-0.32252194559351494,-0.2163337676009094,-0.17276438646641074,-0.39498896375508996,-0.48380703170084666,-0.4207286229014223,-0.36925485103817346,-0.5860962647344722,-0.7035679763795148,-0.5094343944602449,-0.3221979619823886,-0.25684115743293434,-0.13157438446661862,-0.2015650822687127,-0.22193143277509514,-0.4464179059293414,-0.5341786415733528,-0.24885442093944027,-0.3312140820552852,1
12.325,4.775,3.4,5.4,23.475,26.425,2.95,5.8,732.0,308.0,188.0,371.0,1478.0,1473.0,174.0,355.0,19.0,20.0,14.0,22.0,16.0,11.0,20.0,17.0,-0.2979751827466606,-0.17704427978450868,-0.307588181741239,-0.07403720117692147,-0.4424489181988327,-0.2100529351795394,-0.037950732327621556,-0.16806603248712232,-0.4065884947524085,-0.3079876265380245,-0.38550236155595746,-0.41089563446021743,-0.5296885378486161,-0.2096737828028648,0.0351795796979786,-0.19068954926770815,-0.5088879166904424,-0.3035204741506567,-0.4336122152954041,-0.31388641137860934,-0.3630390432541643,-0.39212029027627426,-0.4343648482530379,-0.4097565164863775,-0.21615684126265305,-0.0786077228526369,0.2626934443033811,-0.1422011433356965,-0.2567326395733185,-0.07735259994469859,0.009049423976331539,-0.0161790762284959,1
16.3,3.55,3.55,4.3,24.475,23.275,3.75,8.225,1062.0,226.0,207.0,265.0,1500.0,1247.0,227.0,476.0,22.0,13.0,12.0,13.0,18.0,14.0,18.0,15.0,-0.5462379933575949,-0.5066276479795477,-0.4468849496115994,-0.4827427871497548,-0.7361222801845699,-0.7729930367026807,-0.5418933684669772,-0.4229371199929774,-0.2552583146788085,-0.3564373132184683,-0.2683548833241974,-0.4050321109472938,-0.2075065578621298,-0.25231343111446775,-0.04821314411243009,-0.13144111208789447,-0.3281796946724003,-0.2047602915469966,-0.08026828380408299,-0.2532014722563096,-0.10426434143408433,-0.16608525037316668,-0.23121839678441547,-0.2956526945467804,-0.33266073543693725,0.005732885985683185,-0.047650202181666323,-0.19601503943776286,-0.561010114709814,-0.26905505221832754,-0.2621042344732045,-0.2756066681281927,1
17.7,3.7,3.1,4.125,17.875,24.575,3.65,7.8,1125.0,212.0,194.0,275.0,1110.0,1526.0,227.0,508.0,19.0,14.0,15.0,20.0,17.0,17.0,18.0,18.0,-0.6326391352548013,-0.4425103965118828,-0.33265772900392204,-0.3397620579824932,-0.3678643760402007,-0.34603925835476373,-0.05951114487762967,0.02446450636724818,-0.23498460360161197,-0.214278210716897,-0.1472451892741979,-0.26430536872002997,-0.2938905633021356,-0.07126813531140892,-0.06999488329198887,-0.3521048814697716,-0.3936795341793867,-0.2999707403920781,-0.3952909178012917,-0.3325234341301121,-0.546500839582565,-0.5468863706384822,-0.42961926007306167,-0.308926370915294,-0.41482611634004474,-0.1953898417342799,-0.028678551278563023,0.02529338961809232,-0.6511423343845674,-0.3273622008627177,-0.35894876818031857,-0.2433155248325496,1
14.65,3.925,3.675,4.075,23.45,23.775,3.0,7.3,1016.0,263.0,221.0,275.0,1437.0,1368.0,170.0,424.0,21.0,19.0,16.0,18.0,18.0,19.0,16.0,16.0,-0.6959788769534441,-0.09674896189784986,0.07912792631710036,-0.0801181984604414,-0.35638435632174154,-0.2177943723198397,0.17502503521911128,-0.1723547532191785,-0.5388935162593537,-0.4320544707072893,-0.42207315377345744,-0.4502388695704185,-0.7169562874911402,-0.5035258251473418,-0.41927184588316463,-0.42102503442081285,-0.3960720150463977,-0.11235483634048264,-0.32248955417934555,-0.3186056103516694,-0.43386812902325017,-0.4908699811093153,-0.41051719496243544,-0.3240834272295948,-0.25725985551133396,-0.010815056717963054,0.2139740179918784,0.1462796284150938,-0.07898288620735634,0.14630625407301467,-0.37256177842780985,-0.0825254859093694,1
10.825,4.025,2.8,2.575,23.7,21.0,3.125,8.15,717.0,265.0,177.0,157.0,1518.0,1396.0,188.0,561.0,17.0,18.0,21.0,13.0,19.0,20.0,18.0,20.0,-0.48139933262488,-0.5218762104995733,-0.3190459844902165,-0.19041135152940047,-0.525198706373346,-0.5065503367200395,-0.24951411995117698,-0.35635382986880193,-0.38483972717677056,-0.16547971436235345,-0.202326430857369,-0.3301358802132797,-0.3712799533556174,-0.3246753694875107,-0.12322340341824811,-0.28967370691583355,-0.5587821372851005,-0.41424457262271097,-0.17747507973964766,-0.11699089620091227,-0.5055901317386724,-0.283538105016132,-0.314634113657683,-0.07583317905783307,-0.25589330855753656,0.1059720116178938,-0.026854874229827783,-0.1531461875195399,-0.4269769044698888,-0.30276263402217973,-0.19580816951984611,-0.28695484154491185,1
11.55,4.1,3.05,2.925,25.175,22.775,2.225,6.225,772.0,255.0,192.0,171.0,1543.0,1498.0,143.0,400.0,18.0,13.0,15.0,15.0,19.0,19.0,11.0,19.0,-0.2251474011136808,-0.19536953952543487,-0.24479622442612026,0.09640880183752432,-0.5378728693221344,-0.4751081343241046,-0.49753379377399376,-0.28095673215003264,-0.22075756808929578,0.07052398967857491,0.05178305532151162,-0.2756367466106812,-0.16254293811943699,-0.07721154654948266,0.12480676714401213,-0.05694074324527252,-0.21537037951914761,-0.2785587168399775,0.006437002498707489,-0.4392924885719674,-0.3538555310608694,-0.3336420822608359,-0.13923418339724802,-0.32559935642861204,-0.13900716934664417,0.3589893033982553,-0.0666692563990685,-0.38885856381448614,-0.37282981543219607,-0.2829304869617591,-0.28656369957717864,-0.4563844604965436,1
11.2,4.025,3.175,2.875,24.25,25.775,2.9,9.275,719.0,261.0,169.0,158.0,1421.0,1525.0,167.0,513.0,18.0,13.0,13.0,15.0,13.0,15.0,14.0,16.0,-0.24752976096180035,-0.13529868152630461,-0.17725101352341144,-0.07120512714403274,-0.4453533768002861,-0.515015402832484,-0.11508989054182128,-0.09357200221446213,-0.20571533114303633,-0.5683193808117945,-0.0639052446238908,-0.22610168113939805,-0.13214886159020933,-0.48466765480201635,-0.10352105292047618,-0.23120846086951818,-0.2405982290765274,-0.2510251276185984,-0.349030609892287,-0.15326580224446623,-0.3795091232584959,-0.5171521390970926,-0.39157359361650806,-0.20319520884649073,-0.14903880613977433,-0.2534260754900287,-0.13874773686519634,-0.19030039414956917,-0.3356334010622731,-0.3777894899862648,-0.32857265292967425,-0.26537522404587716,1
9.15,4.225,2.7,3.05,20.675,23.05,2.425,9.175,553.0,282.0,149.0,190.0,1460.0,1393.0,158.0,564.0,18.0,20.0,13.0,19.0,18.0,17.0,13.0,16.0,-0.1612973152407175,-0.022826387393579214,-0.15797810677246982,-0.09161513917094437,-0.700172701989157,-0.40940330083008813,-0.07621591924800455,-0.04083508709325389,-0.15335581010715005,-0.39617513064572074,0.06186840699349821,-0.2785965318201598,-0.2892171536934465,-0.34862366104900866,-0.12772459791536364,-0.08930452545751794,-0.6826380852113536,-0.6336643634080414,-0.3920069055248766,-0.4862640131844453,-0.30098715990122615,-0.5758765938699639,-0.06644028431294029,-0.36755930866478764,-0.3918052981563223,-0.28863545838527516,-0.24547294529511263,0.023311220077593193,-0.5568424052063428,-0.3874399548823748,-0.26099960988303667,-0.03755845228281056,1
9.8,4.025,2.45,3.075,18.275,21.95,2.5,5.9,671.0,292.0,156.0,185.0,1076.0,1391.0,155.0,374.0,19.0,17.0,17.0,17.0,16.0,19.0,17.0,15.0,-0.5160757447963759,-0.35193802604174057,-0.10446289889333554,-0.30985081004108544,-0.7291811620346493,-0.2889993875215914,-0.13259023629423555,-0.1779605968928581,-0.5994881680218312,-0.4339421039629922,-0.2988327552638129,-0.1925460291583592,-0.409393101593292,-0.3536888020682646,-0.268820077808615,-0.13474558336768785,-0.4037628459511961,-0.4054814846601757,-0.2600481165301525,-0.3640210262559887,-0.7144358707436109,-0.5535447169706401,-0.5413584128902943,-0.4837381959905138,-0.2745796201679744,0.10800428941610554,0.06512809438407702,-0.10091648843925438,-0.5750668416132281,-0.3873378858446235,-0.13799455568954355,-0.07746236140066129,1
12.425,3.275,2.85,2.875,27.225,26.375,2.75,7.575,695.0,200.0,171.0,174.0,1801.0,1687.0,186.0,499.0,13.0,15.0,18.0,18.0,18.0,20.0,15.0,16.0,-0.3660924438157994,-0.45898900994198893,-0.2758686266703065,-0.16274539047503822,-0.3435609866002968,-0.42601287421204304,-0.32875428668418494,-0.5229834466686906,-0.5233376908483198,-0.5502270545305044,-0.3389760681486346,-0.3715320579948571,-0.2837093609099751,-0.1352171416565068,-0.11213864771249543,-0.24674751968798622,-0.7095647535844283,-0.6536835777922263,-0.27513620515735293,-0.14993437679262825,-0.5331441747966124,-0.5108515402545949,-0.2690875886012211,-0.27717730370373916,-0.3056602785682903,0.11918767182781566,0.022758896193263385,-0.3012182263770763,-0.3324984013079125,-0.007017209041092198,0.12055809996802652,0.08796011059417438,1
10.55,3.65,3.175,2.85,31.15,28.275,2.95,9.5,587.0,232.0,208.0,187.0,2045.0,1769.0,168.0,639.0,17.0,13.0,14.0,16.0,18.0,14.0,15.0,21.0,-0.3172352268226168,-0.38266400140038065,-0.28413329436541596,-0.08510319179615711,-0.4269575476782558,-0.39928171969604137,-0.3017038652682831,-0.4881695086265559,-0.6584192213895801,-0.402603086532168,-0.3152820938751202,-0.2990506414496166,-0.3762493744649848,-0.3349921683986202,-0.14802717959096287,-0.20960255484246737,-0.6546501566179177,-0.4293714075228059,-0.23995056899727726,-0.18477759637230132,-0.49132322349735735,-0.3420058291356511,-0.25762896247416206,-0.269277971439529,-0.3109287706346951,-0.1317582396820952,-0.2038134778485179,-0.022557460430896955,-0.2898248545850894,0.2167841702347361,-0.04750702923452024,-0.23063549228756716,1
13.1,3.9,3.4,2.875,27.475,27.325,2.3,9.875,723.0,254.0,212.0,180.0,1771.0,1614.0,133.0,672.0,14.0,14.0,15.0,15.0,16.0,11.0,9.0,18.0,-0.2441775637236334,-0.20811835631696798,-0.09312370099331989,0.08336345606075365,-0.36021458754379365,-0.44993907031568314,-0.23728764583328038,-0.48118156185203836,-0.6083310719137863,-0.574633735633136,-0.539284433665923,-0.4823077999856697,-0.4875004063917362,-0.30568540323977406,-0.32436993154125043,-0.3660358216765647,-0.5505669824944412,-0.650071773203545,-0.6298194169542822,-0.43458815868429174,-0.43791640587781583,-0.5603853305376759,-0.6017685163300545,-0.41160776894802614,-0.1754972219731513,-0.20719614559785973,-0.04679269136494836,-0.06374215155877577,-0.3795965519024049,0.21736792245710668,-0.13424068577388495,-0.36856242104674763,1
11.775,3.275,2.475,2.55,19.8,22.175,2.425,8.4,754.0,224.0,135.0,160.0,1300.0,1394.0,145.0,572.0,19.0,19.0,11.0,13.0,15.0,15.0,17.0,20.0,-0.40053084470402334,-0.2577822128887953,-0.2400572996938402,-0.3389274827490291,-0.7854178536289819,-0.5249187762557914,-0.5922070267460295,-0.46726594841919994,-0.3654572183694227,-0.4828964189794186,-0.4940877391129821,-0.18346959700316123,-0.44437463461184584,-0.6073761681576886,-0.24022370490626288,-0.17032618603851063,-0.6240278861886586,-0.8005754658447481,-0.6355239543253384,-0.546518400507046,-0.5012124178288667,-0.6923497113024148,-0.5513123434986886,-0.6095782277801736,-0.20422993599229014,-0.17807589244653985,-0.18660714814916632,-0.110126783412482,-0.44926749795179965,-0.09714894025897504,-0.14606157003097436,-0.3682315715869686,1
14.15,3.35,3.4,2.95,26.35,24.7,2.275,9.85,932.0,194.0,195.0,184.0,1752.0,1523.0,130.0,620.0,20.0,13.0,15.0,13.0,20.0,15.0,15.0,15.0,-0.5371844848655152,-0.3166095844579382,-0.24871655224265538,-0.1439048132609119,-0.2464464092408963,-0.29841918949284985,-0.3035251417023599,-0.2066538065087008,-0.36469877173565435,-0.4378158124000804,-0.42817130938402176,-0.3890759982384546,-0.30348355553456896,-0.46621447283596706,-0.19877373000005935,-0.12872571604765837,-0.6200380775326986,-0.6210576824338021,-0.4328570814503463,-0.5067398927428112,-0.5458415654236635,-0.6184388440395298,-0.5263327083718059,-0.5161255188012872,-0.17759726281501007,-0.27432886931631295,-0.3033059335557375,-0.2870276372684199,-0.21630996338341157,-0.1674457911809221,-0.3562050899236105,-0.06972325692527344,1
18.325,3.275,2.65,2.25,24.875,19.675,2.6,8.35,1214.0,208.0,141.0,117.0,1552.0,1172.0,165.0,496.0,16.0,17.0,11.0,12.0,17.0,13.0,18.0,14.0,-0.5360750177896796,-0.41615320147806284,-0.3526799488697981,-0.3574506501996107,-0.1862156686713933,-0.2745148044315877,-0.1359818152999751,-0.4563286938574279,-0.22356198310032624,-0.2624608928642397,-0.3478398497178395,-0.5164967509902073,-0.08329952730231141,-0.024010330192705046,-0.2855676112235863,-0.2878749129037613,-0.5316002184886529,-0.32779709608697355,-0.2004607658289371,-0.23635460220546228,-0.5219159075822708,-0.38924951010921316,-0.5369603282354786,-0.46555455759738956,-0.3966669833089337,-0.3128738762500781,-0.10603617431948098,0.16175804298159163,-0.17908268599368068,-0.22684152601633095,-0.19307756022900516,-0.2652159175764907,1
15.825,4.925,2.625,2.6,24.025,20.0,2.675,8.825,1026.0,282.0,146.0,152.0,1561.0,1321.0,163.0,605.0,20.0,16.0,16.0,14.0,22.0,18.0,16.0,18.0,-0.6196599444525657,-0.4119408722389642,-0.2943036980219497,-0.16821896218530152,-0.3002343108007248,-0.22803656890068072,-0.38922618177372187,-0.2979971852620363,-0.17700127735817942,-0.5461859047540567,-0.0890767547009897,-0.3483405235646503,-0.151306210455201,-0.33627845515918364,-0.009061793251013929,-0.38585890829828273,-0.4121547112885983,-0.24175285257403575,0.09546909005509428,-0.222848905603139,-0.596292605446578,-0.8621379820329459,-0.33882101470742854,-0.39750226200204103,-0.3870250449803672,-0.2566753006596633,-0.03714991875191163,0.11022938419237617,-0.3979067801515848,0.006133145470668502,-0.08034393203227226,-0.11318939616783635,1
13.175,5.85,2.525,3.45,19.05,20.625,2.875,9.95,802.0,331.0,146.0,199.0,1195.0,1364.0,187.0,625.0,16.0,17.0,12.0,15.0,16.0,16.0,16.0,22.0,-0.24656861513511297,-0.30870799597564796,-0.32817915583083274,0.12008201983455298,-0.347484120656118,-0.49544607744104135,-0.4067358508243165,-0.12488948579443586,-0.13555398712383276,-0.21194805369047418,-0.20419571530888916,-0.05455658623766328,-0.3552513957515299,-0.3667075135628479,-0.293368708871149,-0.21844648981689388,-0.26075824257806435,0.1681461659759443,-0.05402262642403937,-0.21908973844796703,-0.42858969370528904,-0.3202683684830511,-0.2721685584541903,-0.25841424749762243,-0.590269718672985,-0.29845384740372316,0.13427465352554876,0.020768940119749973,-0.23981287019478953,0.05851879208329617,-0.11430274625973802,-0.07564083462707129,1
8.05,3.725,3.475,4.425,30.55,26.675,2.825,8.2,452.0,246.0,238.0,269.0,1996.0,1719.0,159.0,542.0,11.0,19.0,12.0,14.0,18.0,18.0,13.0,16.0,0.07826433073220769,-0.2848748839981353,0.08305643816897842,-0.28018164297811216,-0.5672255704645356,-0.27665895031385107,-0.10933574207610239,-0.3557818548827124,-0.6176487311539007,-0.5800737940964776,-0.5838548527289438,-0.5858297069757814,-0.5409804000388307,-0.4523610904000351,-0.4637021084826979,-0.5642556522822528,-0.7705502767765902,-0.657211933446533,-0.6785722474488987,-0.4119328777906587,-0.6081639624456991,-0.5824492974698411,-0.6106091982701037,-0.5244327807788893,-0.20965535693489593,-0.2419411209126276,0.12773104874386576,-0.1960781191461427,-0.3156441710676289,-0.12865486392001457,-0.1503939916144396,-0.06701123225067647,1
10.625,3.4,3.3,4.075,29.225,26.45,2.075,5.625,605.0,218.0,199.0,260.0,2007.0,1627.0,130.0,377.0,16.0,13.0,13.0,18.0,16.0,19.0,14.0,19.0,-0.20385139921495385,-0.16686810397448937,-0.2924762104245474,-0.0014587747524140828,-0.5051432925186635,-0.32907959748173027,-0.2073087272303183,-0.09842117761755766,-0.21512622624360617,-0.07458628309651923,-0.636291974364936,-0.14779942145441416,-0.41772801555817146,-0.14422401771410784,-0.586157264864646,-0.42509657732231343,-0.698766046737056,-0.4396894481875878,-0.6108400721032132,-0.46101267053495604,-0.5493283209536486,-0.34748823945233853,-0.6625168480086786,-0.5652287236301915,-0.09332845219699319,-0.12831597109081277,0.059615982957325384,0.11138824923618285,-0.4867284343426772,-0.09980430675434941,0.009782359948134286,-0.09263609189179932,1
15.05,3.975,3.675,4.025,26.45,26.675,2.825,7.275,774.0,261.0,220.0,258.0,1634.0,1636.0,175.0,478.0,16.0,19.0,14.0,17.0,18.0,14.0,12.0,18.0,-0.0362441804161327,-0.09762027571470322,-0.24261368131645658,-0.23488304121861384,-0.5663412593795798,-0.34926422593187834,-0.4193288013648633,-0.47238442974203493,-0.25992013438783795,-0.2522140133104561,-0.4046906732160373,-0.4240134911379986,-0.330345555872288,-0.3793505923482177,-0.3685170803341975,-0.4354917818942708,-0.45455892475944243,-0.2891494305842935,-0.10594790707599314,-0.35351334151088704,-0.3590779760888965,-0.3719076010119631,-0.3003378267208663,-0.5059857578242128,-0.18437484197687085,-0.19175967393353122,-0.04346577650459009,-0.16778686871404452,-0.16403629306235312,0.05463951954426056,-0.07355489022428321,-0.1483107059877089,1
10.35,3.325,3.75,3.825,23.45,28.6,2.675,6.575,610.0,200.0,214.0,237.0,1403.0,1698.0,159.0,444.0,17.0,18.0,12.0,17.0,17.0,18.0,15.0,20.0,-0.34206609821292316,-0.24393113841071498,-0.14395234953741273,-0.16422546837021143,-0.7724117910282362,-0.8869759934033804,-0.5065542153486212,-0.503860416769612,-0.34006750284376264,-0.4459043317101805,-0.42827625779956946,-0.4123324397473936,-0.5277825013975013,-0.4662504625237183,-0.45308462572069175,-0.29350880840301674,-0.4070930833640296,-0.40713164822510645,-0.41439339400572317,-0.3025392531271234,-0.5369445799674742,-0.6362891010384129,-0.49177582226792416,-0.5048715194998488,-0.21812945983246307,0.025628466659132917,-0.042400256823868956,-0.15561261194172,-0.6261775018047607,-0.20249531421181347,-0.06918864213789033,-0.035059795346162624,1
13.95,4.125,3.275,4.125,23.825,23.7,3.125,6.725,939.0,252.0,210.0,229.0,1387.0,1412.0,199.0,437.0,22.0,17.0,15.0,14.0,17.0,19.0,20.0,15.0,-0.43294136827919705,-0.170780450271807,-0.11780629648299494,-0.05012255246595369,-0.3100575915932569,0.061157551305235126,-0.15096858265191035,-0.25500329379454545,-0.30467367903621995,-0.5368045318232503,-0.2570413342737494,-0.48681571721912253,-0.20137321398991861,-0.19310092167231416,0.21088613003322693,-0.3199166797268946,-0.24661147441455936,-0.3376654929751537,-0.3687682328363351,-0.13450034440237593,-0.4093510163499114,-0.5023996549089285,-0.4525745763304571,-0.2638415524648206,-0.5544311750751707,-0.2657130249368641,-0.15860532784034168,-0.18472049524181317,-0.5864432327414031,-0.2893021308656101,0.17086084230278384,0.12980484582424537,1
14.575,4.75,3.825,5.2,27.075,26.575,3.275,10.275,977.0,285.0,225.0,333.0,1536.0,1568.0,204.0,717.0,18.0,17.0,12.0,16.0,14.0,12.0,19.0,18.0,-0.49386733039497654,-0.34808311297536126,-0.34830257695146327,-0.25389779490519326,-0.5572887127999213,-0.3004382287919714,-0.46431599528166245,-0.4503711002144166,-0.342903397986965,-0.43846773918031345,-0.2688972606149026,-0.4385506136984486,-0.3633178819119019,-0.23871602761817462,-0.2618480535247725,-0.5699655878826979,-0.22173492588299465,-0.47554314270278336,-0.1514714239363658,-0.25002638516522624,-0.5628588668510487,-0.62109392663259,-0.5320580117217175,-0.5305900428919842,-0.32485400768970585,-0.2766559281318531,-0.1426100856462085,-0.4478536595659724,-0.5613282408883921,-0.18611844880305017,0.009458966954987845,-0.31588045420412914,1
16.65,3.925,4.025,3.875,35.85,31.8,4.075,11.625,903.0,236.0,196.0,240.0,2095.0,1800.0,223.0,778.0,11.0,14.0,14.0,10.0,20.0,12.0,14.0,14.0,-0.1054311831900809,-0.1984973635081488,-0.22813155549236375,0.01955435576670512,-0.26519415607167585,-0.18179507935041567,-0.18534152070341597,-0.39823961999316004,-0.11971630656340913,-0.32204181597165144,-0.391029202287925,-0.270036792631108,-0.28087546617311077,-0.21109474885204385,-0.35733098978694505,-0.4262765686076976,-0.3427282244430957,-0.4443911172505369,-0.27737975831445577,-0.1836249264927713,-0.28505076940998125,-0.4272623823975754,-0.4260145196324475,-0.23187246731188657,-0.025268094076543846,-0.31597506292155664,-0.35659765276449795,-0.11551526196271655,-0.5313023564709446,-0.17625856718204722,-0.2652736186526017,-0.46416558711719935,1
10.925,4.0,3.775,4.25,27.625,27.5,3.425,8.75,677.0,255.0,225.0,266.0,1438.0,1496.0,193.0,524.0,18.0,18.0,13.0,16.0,13.0,15.0,9.0,14.0,-0.2376716556200803,-0.050254014775239275,0.16245079891604874,-0.07076145251106976,-0.5945366639517866,-0.688199969695696,-0.43944151348530835,-0.43739804341554345,-0.4182408804774242,-0.6053601845109291,-0.544483074541417,-0.48064797640262863,-0.3926022510375142,-0.48022048121029076,-0.5317676738633,-0.40838393869602596,0.0035023995826186146,-0.2381024181915153,0.19300894681093,-0.15232545838086803,-0.09241885439260057,-0.6303799237408274,-0.25433282598152146,-0.417488791146043,0.0027001435290238845,-0.1945636518624349,0.08368724821940354,0.20368218586890657,-0.32841971708400947,-0.1955720712859199,-0.4276150101466207,-0.4214162414371666,1
9.025,3.55,2.95,3.825,18.2,15.975,3.1,7.15,565.0,218.0,194.0,241.0,1010.0,898.0,200.0,478.0,14.0,14.0,17.0,16.0,12.0,18.0,20.0,16.0,-0.25228330609893757,-0.5011792685508663,-0.06970911945166065,-0.46089602672449276,-0.32982392305333724,-0.11512850031873137,0.10282644983754788,-0.26753203964768063,-0.4600369261415036,-0.153015925103499,-0.12806335773149696,-0.2954876074969249,-0.350937155417973,-0.1051344897169547,-0.13810672204340096,-0.3844554558810903,-0.18342759915163886,-0.28958471053138857,-0.27120066003414633,-0.29470045105296944,-0.2634142321875725,-0.4914725648136391,-0.34133823058489493,-0.3813902435732552,-0.2771906214577559,0.20735495096780035,0.24874919815425345,-0.19103213743877778,-0.687331798107222,-0.6707903260499155,-0.4516780604178388,-0.3944257506946383,1
13.275,4.4,3.65,4.05,19.4,19.625,2.5,6.35,819.0,270.0,253.0,254.0,1222.0,1160.0,141.0,403.0,12.0,17.0,16.0,14.0,18.0,14.0,14.0,14.0,-0.609135326296961,-0.533213636433556,-0.5044288809166582,-0.280130596469568,-0.4863253807254464,-0.34845650383432425,-0.43795345097159144,-0.27534585533410544,-0.5510937598912828,-0.3952367202537122,-0.46936126094074554,-0.17174499677861715,-0.417163661237278,-0.2638385220358106,-0.22795713207629023,-0.042636835300888284,-0.48108827174435087,-0.4664893106771793,-0.36444195917084177,-0.38518304970372713,-0.25500130417436817,-0.4013361335811678,-0.3532053317598091,-0.2694537898017951,-0.1446050152246651,-0.003821337880087708,-0.20373518588140774,-0.2432247463710975,-0.3713292443613828,-0.27731150943506594,-0.0890194056252299,-0.08070578638669051,1
17.95,3.75,3.0,3.525,17.85,15.475,3.375,8.125,1082.0,220.0,183.0,230.0,1195.0,958.0,183.0,488.0,17.0,17.0,12.0,13.0,20.0,17.0,14.0,18.0,-0.5284444669898279,-0.6190513461255205,-0.44931026977220545,-0.28810306858608076,-0.45546012503535294,-0.2569770130436872,-0.34389321029316966,0.040104077087397695,-0.35886873609349906,-0.21006434990781048,-0.36655916245922765,-0.30636289110705595,-0.3559770820624594,-0.20742421250939655,-0.4279600823937778,-0.407621895087181,-0.4085568137263997,-0.20368277385130515,-0.18146608512705156,-0.10083176975695893,-0.37245374993858854,-0.6110848910601885,-0.4682813310996887,-0.19172764459928052,0.11708476453163214,-0.14529232111447957,-0.004315373878078309,-0.16974669794602465,-0.46197584349325843,-0.2426156552555065,-0.4262293417351265,-0.41034442506318203,1
13.6,3.65,3.275,4.05,20.65,22.725,3.325,7.525,901.0,217.0,166.0,213.0,1287.0,1281.0,182.0,542.0,18.0,16.0,10.0,12.0,15.0,16.0,11.0,17.0,-0.45860739585250565,-0.2934283921984407,-0.04197357377835004,-0.16069427127551145,-0.3798460246902864,-0.39192900091122895,-0.37012534417556364,-0.24937752125603987,-0.2922179191325668,-0.492370766111162,-0.4761462937246637,-0.2869588470155379,-0.39264636037584383,-0.4660562999337865,-0.6488618167758545,-0.25260307245016167,-0.3525795712981625,-0.35996601529757716,-0.32113930770591076,-0.3990145298918392,-0.5505218348206505,-0.7028230826799373,-0.6251518706663008,-0.6017582452690338,-0.15056337821435806,0.1030319040684417,-0.21101309018731476,-0.19466607272440714,-0.3957893031606635,-0.14480268629906773,-0.24110021876731222,-0.2390170245154306,1
10.6,2.85,2.55,3.275,21.125,22.825,2.925,9.25,678.0,182.0,150.0,222.0,1424.0,1420.0,189.0,558.0,15.0,17.0,16.0,15.0,20.0,16.0,14.0,18.0,-0.45997117023146156,-0.25113564574312086,-0.23678528942726185,-0.10106209931169814,-0.42277696265159226,-0.31237983467642655,-0.21362792764898786,-0.3731161717751159,-0.29596507055301435,-0.3347554123125889,-0.30689518706179186,-0.01276321147715152,-0.6251727019616101,-0.535903084791135,-0.5788222611587365,-0.41087925834633887,-0.5799186001522165,-0.38663513849617015,-0.40335783747176496,-0.3667092536530452,-0.44391523149171175,-0.39024730687406833,-0.608841794044884,-0.3581348888435799,-0.2590071320035649,0.038626593281814454,-0.19525883757385581,-0.5661244217887325,-0.2807711459783327,-0.18317688341779245,-0.09868072437997863,-0.316862190255689,1
11.625,3.475,4.2,4.575,22.95,23.3,3.15,6.825,726.0,225.0,267.0,275.0,1492.0,1484.0,192.0,432.0,17.0,17.0,14.0,16.0,20.0,16.0,13.0,15.0,-0.44087690070357993,-0.12183709314835212,-0.14901587520223847,-0.1028438198371874,-0.5494297016741813,-0.41746058096688554,-0.438412044910942,-0.283023810170778,-0.6251024883215697,-0.5188646849999684,-0.5773510733572614,-0.2870549257791715,-0.5009537271633229,-0.5785082054772049,-0.4560017225773822,-0.32590189614807674,-0.7781725398368423,-0.6585672753418752,-0.44470733332347107,-0.01639248106454308,-0.548361379387798,-0.45482316441103693,-0.47285544311913713,-0.1752391860084128,-0.12883035054070557,-0.03366105704724895,-0.26154941108252844,-0.20169778854763712,-0.14375000352729833,0.08833843519921122,-0.3154801056520337,-0.1712860464610523,1
10.55,3.3,3.8,4.225,21.375,23.325,3.525,6.175,711.0,184.0,224.0,238.0,1286.0,1467.0,176.0,419.0,20.0,10.0,12.0,13.0,14.0,15.0,10.0,20.0,-0.6417410845111012,-0.4215618553898394,-0.266125096141428,-0.3244176028365368,-0.567557569379223,-0.44477289246151375,-0.6282447432593582,-0.5951513197822477,-0.4994142886774981,-0.37229858488447215,-0.410688264345469,-0.4079980119064442,-0.37177005260565715,-0.40834933874504126,-0.3483074076677833,-0.38583609344115277,-0.5837347964555735,-0.3414622956899298,-0.6376248463938894,-0.4310825483818487,-0.7729753916349611,-0.6726893055316303,-0.7413227148416831,-0.6743099365679156,0.19307595446663378,-0.0034712526119885716,-0.22352208861917394,0.07010146532814059,-0.2570836238981694,0.05120457426561164,0.06770160319855047,-0.23780552835957,1
11.25,2.625,2.325,2.2,17.45,16.55,2.975,7.1,721.0,141.0,136.0,121.0,971.0,1064.0,179.0,488.0,18.0,14.0,12.0,17.0,12.0,19.0,16.0,18.0,-0.4855581043753851,-0.1648252432469596,-0.00148912929332895,-0.0805325435491695,-0.25891985766367925,-0.13847236666344231,-0.06537398165303322,-0.06523535261268044,-0.2339953362582456,-0.20709932029226116,-0.08762924924618679,-0.33751985782348265,-0.11466557800132203,-0.03250019594825805,0.1588085692906443,-0.01640313598793995,-0.42487064210288716,-0.3445406803675697,-0.5057552996661786,-0.3899065418786447,-0.5077767035962238,-0.3641281398808413,-0.45190366276514177,-0.39976437840566204,-0.3712008768177312,-0.07281250236192485,0.0749899951168588,0.15450216300313968,-0.5537785863304331,-0.3077355302959711,-0.09143704673601849,0.00015554636433340685,1
12.35,2.55,2.4,3.65,17.175,19.3,3.525,9.975,800.0,134.0,138.0,231.0,1069.0,1161.0,219.0,625.0,19.0,10.0,12.0,16.0,18.0,18.0,14.0,18.0,-0.38790020721508084,-0.3427628043946343,-0.3127960519979374,-0.19305861177314707,-0.14465211157851093,-0.3805538669927671,-0.17106252972244332,-0.2816312180357738,-0.30374837475376165,-0.35615422251397005,-0.5728313290266648,-0.15510405931619847,-0.5534133399343428,-0.3519975848687135,-0.5565319889010155,-0.2147910206214122,-0.3013723681926098,-0.258698377011386,-0.4057331668643529,-0.12063407854295186,-0.44108689434374687,-0.3626600135629939,-0.4769437240708174,-0.15465186014729929,0.11092571761299298,-0.016005924839527955,0.030460280422480873,-0.11197850101549826,-0.3701330618235515,-0.40724194625893845,-0.2655897308495312,-0.4328404626261733,1
15.9,3.325,2.85,4.875,20.925,19.775,4.075,11.225,1008.0,193.0,192.0,315.0,1332.0,1349.0,238.0,684.0,13.0,16.0,16.0,17.0,18.0,20.0,14.0,18.0,-0.3517899661596776,-0.35423164861648304,-0.194697232602516,-0.2961825566576837,-0.3486643838872466,-0.2680479470356539,-0.4120178639992483,-0.3331996170765138,-0.3949438102880706,-0.09661968065061653,-0.12605996648763954,-0.03789260884856332,-0.6989227372539453,-0.25044976273530956,-0.14467264029716934,-0.09352122865718866,-0.4335634507666661,-0.3049817094139765,-0.1470570176336062,-0.0931459741869647,-0.7879907349258612,-0.4936365236612925,-0.3633938988333162,-0.12112867550143831,0.07652384116384371,-0.07258670196006853,-0.036979648794346835,-0.19877132827218297,-0.41970179243542466,-0.38460789454012817,-0.2324521366891164,-0.29084290280763647,1
13.175,2.925,2.475,3.4,16.225,14.15,3.475,6.7,793.0,185.0,125.0,188.0,993.0,837.0,197.0,425.0,16.0,16.0,10.0,13.0,20.0,14.0,16.0,16.0,-0.3654736619560389,-0.608676725927046,-0.23760487455156035,-0.4233604432189346,-0.572700949435552,-0.6255784808975475,-0.6190413450768442,-0.32729783385743166,-0.1225755708684534,-0.15182953455943235,-0.3037289532469753,-0.10739740058160754,-0.28997286487321433,-0.44364450331688715,-0.20937014995847156,-0.26228497738238316,-0.2235328967721845,-0.13838714745611363,-0.340104602373655,-0.21829283708158942,-0.1844748587289797,-0.24139551941940113,-0.4209317761542195,-0.07016089986880951,-0.04659539175449699,-0.11274981587616444,0.10385135981045292,0.09975009665486326,-0.5072728789121834,-0.36861790101247516,-0.052570058357652764,-0.25616139538929666,1
11.95,3.075,2.4,2.95,16.975,18.225,3.5,7.875,779.0,175.0,139.0,190.0,924.0,1028.0,224.0,534.0,16.0,14.0,12.0,11.0,14.0,13.0,22.0,18.0,-0.4605656726762939,-0.33011572120681837,-0.29673270900164783,-0.2653838967245197,-0.24992416938848597,-0.3282452429908904,-0.5575185161892353,-0.2802694355855735,-0.30096565632548655,-0.5470736173918199,-0.3665417838798069,-0.21704634312546447,-0.5572710995867862,-0.5066001955011947,-0.4181420181489644,-0.03347747430924356,-0.3074422842415452,-0.25886284479181704,-0.48796715466067714,-0.36672737089170865,-0.34456907799935654,-0.3679153551445769,-0.4968654795882966,-0.3623223757187611,-0.21011014666031572,0.08390035903620624,0.14193892137498096,-0.1930516733692226,-0.7202153641777874,-0.5175557526222991,-0.33565511151891736,-0.2333754577834355,1
12.45,3.35,2.475,3.125,19.5,15.85,3.675,10.025,820.0,198.0,142.0,189.0,1221.0,1069.0,200.0,622.0,20.0,17.0,13.0,14.0,19.0,20.0,11.0,15.0,-0.32889704004963427,-0.04561784859215261,-0.08692645590758646,-0.2036598972923575,-0.3688502343440604,-0.45829048556172525,-0.3083058059401859,-0.12380068034513779,-0.21163253541660715,-0.5452342817394978,-0.31654465694326234,-0.22473127040784038,-0.37329633402248363,-0.4348351713754265,-0.27351290921303995,-0.08228069475778411,-0.44311103109145233,-0.5084611351529806,-0.3872171225839046,-0.349076233858017,-0.6827317071534006,-0.6034894640938828,-0.47619798293720944,-0.3491336192663209,-0.229828946053164,-0.26841070727011623,-0.06090380676772523,-0.14265890026146522,-0.5171603498362976,-0.25488563368615835,-0.39683468453513376,-0.3456172464753525,1
10.5,2.775,2.175,2.5,17.575,14.75,3.9,9.3,686.0,164.0,123.0,137.0,1224.0,890.0,200.0,539.0,18.0,13.0,14.0,12.0,21.0,13.0,13.0,15.0,-0.3770067282746557,-0.23660666007445819,-0.3230224410559595,-0.45492502891075537,-0.4282710031474695,-0.5195182412294016,-0.18616474917067297,-0.22548926764417315,-0.18024790920991976,-0.21076656039461775,0.04789291405475028,-0.10465622423560811,-0.06516289225562229,-0.21650849589645305,0.08897472954335466,-0.20210125780124624,-0.5829274551042611,-0.031410515284870086,0.09313258331690251,-0.023573883199577584,-0.5843635640987496,-0.5080970547681989,-0.40841482461819684,-0.27594400069330083,-0.33438461033245837,-0.4375373744430321,-0.536315831806656,-0.39177150064376765,-0.378755651872532,-0.3047278943865943,-0.5831931925929154,-0.3179344526797199,1
7.2,2.225,2.175,2.7,15.0,16.025,2.825,5.275,445.0,115.0,114.0,159.0,1002.0,849.0,152.0,306.0,16.0,14.0,12.0,13.0,17.0,13.0,14.0,16.0,-0.507396737162616,-0.25278841127379703,-0.3350143822097644,-0.3121569476310626,-0.2892715887482334,-0.33148592752381234,-0.10315723204999927,-0.1369770523413888,-0.18893720351909463,-0.2993931053044009,-0.20398007722848457,-0.14960449391825323,-0.06481256091289468,0.055567050865048824,-0.24908693065763507,-0.11417288824337458,-0.4660987382270852,-0.1841769603059602,-0.11551558089331468,0.13547412483676632,-0.37449417541301205,-0.29508963701625157,-0.29758515520842843,-0.04661623815953386,-0.06680590440703685,-0.027906847043008078,-0.20408395249485406,-0.15504664482096675,-0.11732639469497909,-0.20417931525784772,-0.046379391933454736,-0.27293691306436413,1
9.275,2.975,2.925,3.175,15.425,17.6,3.2,5.9,670.0,182.0,175.0,206.0,1056.0,1130.0,204.0,373.0,22.0,13.0,18.0,16.0,21.0,18.0,13.0,17.0,-0.7343468187598312,-0.3704019266727404,-0.3007338256506993,-0.3589833054874799,-0.3440186113969054,-0.3721820995305396,-0.2329387818542668,-0.4164649598441725,-0.3898809691428667,-0.1286054964225023,-0.06911209137732814,-0.19296803972607476,-0.41460285023775256,-0.05033546062228044,-0.002728878199100072,-0.17435551326307022,-0.5524443536373052,-0.34806753500903737,-0.3186888763588515,-0.06583143577753259,-0.5508418429107437,-0.47370080937603004,-0.36043721673870965,-0.27952973694835787,-0.08882059410464836,-0.03843851818610323,0.016793815208497292,-0.3850504680753202,-0.5298292005249763,-0.257938832034876,-0.16642371493965785,-0.2668154544248028,1
12.55,3.325,2.25,3.05,14.1,12.45,3.05,7.9,816.0,224.0,144.0,189.0,981.0,834.0,174.0,436.0,17.0,19.0,13.0,14.0,20.0,20.0,14.0,16.0,-0.31238303937461137,-0.07404746986916817,-0.1673687586087584,-0.19609635901845746,-0.3403628525053606,-0.3153600006593169,-0.03925792673114371,-0.29000329267289254,-0.30588536236511416,-0.019380352978927824,0.13950140796315622,0.06252718894525298,-0.45978147759637084,-0.19591023916101055,-0.11194200887676797,-0.08151300284361294,-0.39799919721330834,-0.02864370330948748,-0.017355409221365418,0.059734792706395715,-0.3807440422878709,-0.3289583991275433,-0.25499552899982497,-0.08182278502644812,-0.12080047598984264,0.008416388774584569,-0.08810912073994463,-0.24987850868379108,-0.18573477268211974,-0.32448543788584583,-0.10824165071655584,-0.5456397691116037,1
7.025,2.45,2.65,4.175,14.175,12.75,2.625,5.45,452.0,119.0,139.0,256.0,911.0,614.0,146.0,313.0,17.0,8.0,8.0,12.0,19.0,9.0,12.0,10.0,-0.11789431269873514,0.01583789049076816,-0.17054116050853602,-0.16662794794106792,0.03005265813942692,-0.15206675355410113,-0.12491185625216905,-0.2043530696330875,-0.030413806549117278,-0.15191482449072963,-0.3360276030083613,-0.23468387230073734,-0.0005679438276752244,-0.14321083393560635,0.06296289729996042,-0.5143837270565518,-0.47087239658356844,-0.3110034520525809,-0.21177948867415688,-0.1498480788962146,0.06878609894683574,-0.13957289942147316,-0.4107162853241358,-0.3104793822347542,-0.06834258062092086,-0.36762180184472415,-0.08109294391324273,-0.25049328031364027,-0.16858190152182673,-0.16627626764521283,0.046726333992322594,-0.21823879038014732,1
12.225,2.8,2.825,2.95,16.425,15.225,2.4,4.35,868.0,135.0,176.0,171.0,1191.0,764.0,137.0,228.0,18.0,10.0,16.0,14.0,21.0,14.0,15.0,11.0,-0.6290372703236582,-0.2851885624305764,-0.47239090064154055,-0.4748072380851815,0.06142000534326228,-0.19586694760044707,-0.27298531252788516,-0.30497521005150074,-0.27173174694162733,-0.2920918185162799,-0.28432045546363044,-0.3059163269747527,-0.011691558575872594,-0.22907277461530903,-0.24964770544507556,-0.12119316789085646,-0.6488802840685375,-0.20029843853504153,-0.4276794331193854,-0.455464368854996,-0.25858047298389525,-0.27306423469945945,-0.40740700461778373,-0.3675002429423459,-0.01629321904783581,-0.22834849800678575,-0.0979322395077328,0.10046305290531879,-0.24324105027824214,-0.5067015675589447,-0.31439103862153517,-0.15206110313564683,1
11.975,2.425,3.075,3.45,18.4,18.35,2.85,4.25,801.0,138.0,174.0,199.0,1220.0,968.0,174.0,258.0,23.0,17.0,13.0,13.0,17.0,13.0,18.0,17.0,-0.4190266473149177,-0.18374423129644557,-0.22025859303347645,-0.19450683583495226,-0.09815536340019115,0.030030211978944548,-0.4131703320455748,-0.22470819353871768,-0.13599957463033965,-0.4411822922491327,-0.10780238972342635,-0.3594401839779769,-0.33263368746305866,-0.6968061512890481,-0.2608243196652508,-0.555293052043956,-0.5033606992338562,-0.42178883575862475,-0.43097863982162493,-0.3781978365174173,-0.22025889681220182,-0.476276649354363,-0.41938438660411986,-0.35303500655628095,-0.38864978884354134,0.06647952036662481,0.07694002970108768,0.171847331247353,-0.4202271757485143,-0.17401380523286478,-0.44620612603456467,-0.4009244016340187,1
10.575,2.775,2.9,3.875,16.425,21.2,3.25,5.575,697.0,176.0,161.0,206.0,996.0,1142.0,173.0,354.0,18.0,19.0,13.0,11.0,18.0,13.0,13.0,19.0,-0.4358307801623398,-0.3526464427050857,-0.2168634336444052,-0.26681387725839895,-0.1948749088001507,-0.09782257088715111,-0.023431481542541058,-0.4599058296773456,-0.3669356859085777,-0.5509089610583795,-0.5938276808027579,-0.34660602417019815,-0.3418483509987826,-0.5390420817327332,-0.51609352172905,-0.3880272975124597,-0.23814864241310868,-0.4610230834712727,-0.3873930296663795,-0.2023187965537201,-0.013053209001792335,-0.500752180315569,-0.42537549797056456,-0.08282168859007458,-0.08267504056064581,0.11544152718736711,-0.30070793493890674,-0.2943920048125446,-0.24293572462203455,-0.15628497314212658,-0.03429793882421278,-0.19592731461381227,1
8.0,3.675,3.55,5.925,16.225,13.95,3.075,6.025,516.0,218.0,219.0,396.0,1009.0,823.0,173.0,358.0,14.0,14.0,16.0,20.0,19.0,18.0,18.0,16.0,-0.21004995959745404,0.030626965202991692,0.02106286697573226,-0.2915681209258419,-0.3279199025758116,-0.32778124454639035,-0.3808841007190855,-0.3817254252001942,-0.43396208404649783,-0.12842454648433518,-0.20429477213622124,-0.3655449938434942,-0.2772125914126219,0.04149933645528946,-0.22241270078356265,-0.3913125197075039,-0.44928317215251046,-0.39573097231119303,-0.07961334487324387,-0.24213401583466151,-0.24019260094164374,-0.20908360882557078,-0.23949665411819357,-0.374276235498026,-0.019246283060769975,-0.0017456301400776801,-0.15321019249407225,-0.2157395303479086,0.08594923794573392,-0.5126511537982673,0.07087976865110338,-0.6796970033597217,1
10.45,3.7,2.775,3.425,15.5,14.925,2.95,7.575,625.0,210.0,180.0,218.0,936.0,880.0,175.0,514.0,16.0,13.0,14.0,14.0,17.0,19.0,13.0,19.0,-0.1809567208383914,-0.09757446822392665,-0.1471893776470261,-0.24999310447583128,-0.43320985382146815,-0.406039901782057,-0.4801992257667558,-0.35981299304796205,-0.4852046408303941,-0.32014936801727495,-0.3032978240730232,-0.4027610728801089,-0.43465379162713824,-0.3738133169545077,-0.31529244991042127,-0.13491708176596276,-0.40923823652531555,-0.5392174216687239,-0.21576242363750897,-0.35570914591670943,-0.40216731769894454,-0.2824185262152764,-0.19989704530450045,-0.428607062114885,0.002686631282997984,-0.10840073915563313,0.16911482686957732,-0.07523081379217046,-0.3099138194009016,-0.09462728628423805,-0.10268312190387366,-0.18414455098142968,1
13.75,3.35,3.175,3.325,17.675,16.525,3.65,8.2,856.0,210.0,188.0,203.0,1251.0,1023.0,240.0,561.0,15.0,19.0,15.0,15.0,22.0,18.0,20.0,20.0,-0.26750267911962583,-0.41167728139861215,-0.2107749350963339,-0.312892558645624,-0.3994983847215132,-0.39716821811347935,-0.14564366524657898,-0.29896186094511784,-0.5143914948904624,-0.32237869649590184,-0.39245347637756717,-0.4705414029923515,-0.3769048317393637,-0.22971304652811328,-0.47523932633746885,-0.35573504560972175,-0.7939063322057872,-0.4292710583449716,-0.29621637486117164,-0.22792974413314507,-0.4582861982916819,-0.3846269541993702,-0.2109095404351902,-0.33721610075882197,-0.7411638318506556,-0.5601521965035906,-0.556823661013728,-0.3007967156771018,-0.5276663282285408,-0.2157440314789662,0.10669668645438188,-0.2687178385546861,1
13.525,3.25,2.325,2.575,15.425,17.075,3.075,7.125,696.0,198.0,145.0,178.0,1089.0,1006.0,194.0,438.0,14.0,16.0,17.0,19.0,24.0,18.0,16.0,20.0,-0.1326273317394102,-0.2880161865391826,-0.3240140347366348,0.0010213920950450474,-0.36318824674503525,-0.31611376424868093,-0.3824899767683891,-0.20423585983844214,-0.2701198351423424,0.045902066816230935,-0.22506531929125864,-0.017817007764015177,-0.4996656448107327,-0.11630003017955992,-0.10265745229851134,-0.10854295753400671,-0.7120139990771324,-0.43278983200047133,-0.29825061212723625,0.06332504283633805,-0.2739612334137457,-0.3965288851652282,-0.26016781776066567,-0.2480296392707897,-0.3602240903951812,0.042026275163497946,0.047786537401940644,0.12053113205877915,-0.2686187098144033,-0.06123539364853657,-0.169770688397814,-0.3109149043240498,1
11.225,3.175,2.725,3.05,17.675,16.275,2.35,6.325,678.0,203.0,150.0,160.0,1277.0,1067.0,114.0,417.0,17.0,17.0,16.0,12.0,21.0,19.0,11.0,16.0,-0.30070183553686236,-0.46063685543450605,-0.1326394791339511,-0.4098556648439451,-0.4382605466492909,-0.377672788401126,-0.20395035515206786,-0.33482989631209126,-0.1475456980303085,-0.1382041625478506,0.01913647491318796,-0.34817222331513453,-0.1896387488719134,-0.14065001208667482,-0.01824388066782961,-0.005297087192822407,-0.890438597210234,-0.5603592057043182,-0.27047431288774865,-0.212991845692475,-0.41698885777273825,-0.14934781394891217,0.020284874682998517,-0.3664248277581089,0.18351190616859306,0.18760480903259286,0.016319274510421197,-0.013618287530069386,-0.17810359965357894,-0.1069364993262863,-0.2371442189801587,0.1459252011814354,1
11.6,3.725,2.4,2.7,16.8,16.35,2.525,7.05,777.0,237.0,125.0,172.0,1082.0,1021.0,135.0,433.0,18.0,18.0,15.0,17.0,22.0,17.0,13.0,12.0,-0.34519419301593396,0.03497718592883627,-0.17273197225669615,-0.4083879122597385,-0.4476926786063599,-0.22494412869819377,-0.3702778465021759,-0.18978980771741122,-0.09900026578190274,-0.2729136091973317,-0.19812097510784313,-0.295347327761761,-0.5275862585732461,-0.4072181283984843,-0.3665480534527866,-0.24225658093895844,-0.5035980836364495,-0.5469309344542732,-0.29424185431444994,-0.2706443404328302,-0.533611135029805,-0.5111787217740713,-0.3034595608068169,-0.483180173072113,0.031781694327848095,0.0018827788450993313,-0.16115698501917583,0.11971585573956786,-0.2073296029876903,-0.2310088056993949,-0.2675704910613469,0.0035769891939790603,1
11.95,3.525,1.875,2.0,15.275,12.75,2.275,8.375,773.0,233.0,103.0,117.0,1025.0,800.0,124.0,527.0,17.0,16.0,10.0,14.0,21.0,20.0,13.0,20.0,-0.3464462601105617,-0.3470100611496447,-0.1315574499671685,-0.4207207123797774,-0.34416146341646003,-0.2231204661341038,0.05177559111094141,-0.2577502691015897,-0.0031546868962534077,-0.2696933355150475,-0.00438830477937703,-0.12775638982408186,-0.22243730662106231,0.002398330117935223,-0.22204725595791328,-0.1608700486594005,-0.6365247388228997,-0.6179582547135514,-0.256224297470488,-0.12967292484710585,-0.30571623564792944,-0.35866885437813967,0.007402545176035417,-0.2025275385790135,-0.07276499995266889,-0.2800294431953594,-0.19934982570062262,0.0003006721247259852,-0.27433481791144776,-0.10929131715414983,0.017326650570549842,-0.1437242004777966,1
10.725,3.6,1.65,1.95,16.55,17.125,2.025,8.025,613.0,216.0,99.0,121.0,1058.0,973.0,100.0,551.0,16.0,15.0,13.0,15.0,19.0,13.0,9.0,23.0,-0.0955572138690189,-0.39316201854751004,-0.0709930136918202,-0.3337468924036991,-0.4094234385928418,-0.36516091414129614,-0.19342376171614173,-0.2452488620742692,-0.07263137305450086,0.04571473809014703,0.022520421068012424,-0.27849671314694985,-0.4806414593404932,-0.4845446662577258,-0.16233325608713456,-0.327413370809591,-0.5457170956072783,-0.4649232082706824,-0.29094159666650826,-0.29456766237059034,-0.4268227207453269,-0.5021996577659279,-0.4579958138748878,-0.4757763953556641,0.016706715701578213,-0.17582515077210034,-0.03661533645747171,-0.160179259652291,-0.47503567551061715,0.08853660812535644,-0.06297600374928435,0.023427043353965137,1
13.375,3.05,2.425,2.6,17.225,18.35,1.9,7.1,816.0,193.0,165.0,182.0,1141.0,1125.0,98.0,427.0,16.0,19.0,15.0,15.0,19.0,15.0,14.0,14.0,-0.3561199278607833,-0.20802725280275677,-0.11809547164555712,-0.3352037087329982,-0.38463920352294434,-0.2799038067216812,-0.22494479884924398,-0.1532418854428356,-0.4748025196154243,-0.22802693495081172,-0.2208096949169649,-0.25755300536963494,-0.46439625965396353,-0.183690509760738,-0.24738466950905408,-0.25570589177390485,-0.8087522992338231,-0.5525772608908182,-0.4098839497768652,-0.22368357725582053,-0.5919322876240899,-0.5044572214521785,-0.5604701239760159,-0.13641342687728367,-0.013945607408556625,-0.16905950204840292,-0.01886798607546982,-0.2606638166864724,-0.3076172598338142,-0.05533572796194747,-0.10987601727957487,-0.03808466400241871,1
10.55,3.525,2.825,2.975,18.475,17.8,2.3,5.1,663.0,205.0,174.0,179.0,1218.0,1155.0,135.0,309.0,18.0,17.0,13.0,11.0,22.0,18.0,15.0,16.0,-0.30372679394569446,-0.07290360348022511,-0.024859095734983124,0.18179499038403626,-0.4738380658661205,-0.4557472659957049,-0.3112653168242315,-0.2286510306715631,-0.3629021441484863,-0.3283296014623561,-0.10827870544284753,-0.42786078062880345,-0.3881556514310519,-0.46785687145743754,-0.27786826543938975,-0.4731690706801664,-0.9367336007867184,-0.7322147694720607,-0.34794209365536743,-0.1894152958823969,-0.3959074695316429,-0.7990595398331374,-0.24473960256532756,-0.46779220369376856,-0.11316219700897813,-0.18441588432821818,-0.08633066582478857,-0.07399714665766736,-0.15212512143388077,-0.09040361800237628,-0.10711417751878295,-0.030170999343305333,1
11.4,3.3,2.45,3.0,17.475,15.55,2.7,7.225,707.0,225.0,141.0,181.0,1102.0,928.0,159.0,475.0,15.0,20.0,12.0,16.0,15.0,15.0,17.0,19.0,-0.15472734609759456,-0.18139217279291928,0.06552472974854726,-0.0151035898825089,-0.36196673967068504,-0.10940341908700886,-0.16535096356266626,-0.25285698150082364,-0.2705693272261314,-0.16151253869493806,-0.10727464733191287,0.007179247920922938,-0.30752828741536836,-0.08814507246060933,-0.1548714964599129,-0.08385395209370099,-0.555935922908749,-0.3637934986937247,-0.3734168617274921,-0.14229830676965455,-0.36260868236648564,-0.4919340493366394,-0.31592458067939144,-0.24960511069222827,-0.31302259813186883,-0.3345705955872971,-0.3174523919867817,-0.2300926400648448,-0.6112234656601742,-0.2568277203957458,-0.1255586709353019,-0.17948425259418116,1
12.3,2.725,2.525,3.0,14.875,16.65,1.975,8.175,832.0,182.0,147.0,199.0,786.0,1008.0,129.0,539.0,21.0,13.0,15.0,20.0,17.0,17.0,12.0,15.0,-0.5309490976697032,-0.39839200989962203,-0.10644570922638359,-0.13276820325217525,-0.3017177972307903,-0.029434312015087383,-0.185792382580282,-0.2473087424827835,-0.1964139635320516,-0.30883989766436354,0.01774895514893886,-0.06901597384539149,-0.4681393620036558,-0.5439528828943986,-0.2848917826445414,-0.3168219642415502,-0.3297144768468529,-0.3929999353945645,-0.46879770199822507,-0.4469956236372983,-0.5235563733800487,-0.5691276500225828,-0.5145823634623139,-0.4533343869846652,-0.3926038579808349,-0.10181506752967252,0.28676318970432485,0.03323221810835344,-0.40250851729757176,-0.18097155579247404,-0.2694391489073943,-0.19036611205953494,1
9.425,2.9,2.1,2.825,14.475,14.125,2.075,7.025,574.0,176.0,134.0,177.0,877.0,833.0,117.0,411.0,16.0,15.0,15.0,19.0,17.0,15.0,15.0,14.0,-0.22711742000874743,-0.31292327221337674,-0.20176755758606343,-0.24929593339232228,-0.7418012866004995,-0.7463394477758508,-0.7403451714461198,-0.42269353402253923,-0.5506057670886659,-0.6646536272354053,-0.4661539196806029,-0.33908587198823226,-0.42197376039041373,-0.38528915791452806,-0.25206914184457097,-0.3986975509282012,-0.3365360233182262,-0.4251277058583363,-0.23510511624061065,-0.17944600117756193,-0.35943647967447656,-0.5122085548980179,-0.2543064661706337,-0.19425216057590955,-0.26392304251647897,0.05508450309312616,-0.12668064003059204,-0.34254299635383106,-0.0947558887240843,-0.09864650139682374,-0.3961812014199027,-0.003561631590501799,1
8.45,2.675,2.1,3.325,20.55,17.175,1.975,5.975,502.0,160.0,119.0,194.0,1347.0,1013.0,107.0,406.0,17.0,14.0,16.0,13.0,18.0,12.0,13.0,18.0,-0.34930473945544516,0.03686547738027049,0.09526214942750948,-0.02296390145158599,-0.41668445740485294,-0.34647415855023544,-0.30195046026127664,-0.4122050585465926,-0.4084429508521661,-0.5222000422737946,-0.4297199435454444,-0.29826021670568037,-0.26410894056568196,-0.5461869091970505,-0.2665242506219216,-0.44340867010312185,-0.5357172618761619,-0.5184336172402635,-0.4493022469188717,-0.3080010684128717,-0.45971398995116247,-0.6117487272330389,-0.6130681434685129,-0.34546662915119397,-0.13026755911996687,-0.27437904665550006,-0.14794578987995105,-0.36941455491163167,-0.33296220143908756,-0.28030688820740635,-0.1864968267530373,-0.1907334039934961,1
13.8,4.25,2.975,4.1,18.475,21.8,2.125,6.025,853.0,298.0,183.0,274.0,1230.0,1313.0,127.0,361.0,18.0,17.0,16.0,20.0,19.0,15.0,15.0,16.0,-0.314327565207914,-0.16263564060343763,-0.036377767274159444,-0.21533417896727206,-0.7450742145080158,-0.340873143955507,-0.2961369815322152,-0.34612200307480123,-0.7022188268829068,-0.6060330555172919,-0.5415319245682773,-0.47738260541336536,-0.6214557895848601,-0.3307752977607259,-0.48222492105925935,-0.44193068654083384,-0.7086792584094052,-0.5885265535075865,-0.46425038478074415,-0.43537138897705263,-0.7264796317549241,-0.6704234953497256,-0.6853728746236198,-0.4354063364404473,-0.25016492113491395,-0.26898206684154136,0.10178129286743147,-0.1415147882029583,-0.0627419321098536,-0.2493704772814693,0.021390560447593163,-0.16587570810619232,1
14.325,3.55,2.875,3.475,19.3,16.05,1.9,5.475,903.0,232.0,180.0,227.0,1330.0,1005.0,120.0,317.0,18.0,15.0,14.0,16.0,18.0,16.0,9.0,14.0,-0.4369297317812721,-0.06224869189631985,-0.3887637917155179,-0.4853771422355643,-0.5795495112230514,-0.15769505761513702,-0.3080225256787031,-0.599621487759734,-0.4196475875644555,-0.0858817692007175,-0.10341056405594372,-0.4860784599317564,-0.465430996530783,-0.019055026335338236,0.1377861752061254,-0.08617649922964667,-0.6659913459891202,-0.38070095435536155,-0.3950151285589615,-0.33535696845177065,-0.5552845957405775,-0.6939517791107193,-0.4880598077386945,-0.4794148956592253,-0.2588760916116772,-0.02257097119175407,0.21500884863427147,0.05461903394818287,-0.16826134280710797,-0.2058612958208844,-0.0634714558217372,0.0522767762911179,1
13.975,3.35,3.0,3.6,19.125,21.675,2.05,7.925,738.0,204.0,163.0,222.0,1131.0,1323.0,133.0,502.0,13.0,17.0,13.0,17.0,16.0,12.0,14.0,18.0,0.16847703054793423,-0.14327505389461134,-0.2168220089079917,0.06231641571088583,-0.3237815848636831,-0.08971399928998056,-0.2244975755495454,-0.3055978491285028,-0.17269789155259505,-0.17411371307644058,-0.3640840857824008,-0.07584154634455334,-0.3539033276521278,-0.1164433724835044,-0.3199794495233793,-0.10868856082234561,-0.3586853430990854,-0.21614134543345606,-0.5530980642395638,-0.2977387333190904,-0.2863483310370773,-0.250954632746784,-0.4155911719009379,-0.13268713148217015,-0.24833986434205388,-0.14576500384982946,0.007058588875357183,-0.054494897858344826,-0.20891197299757722,-0.16031284788463063,-0.04876220452779618,-0.29780413428034347,1
13.25,3.025,1.975,2.925,17.975,15.35,2.05,7.2,761.0,206.0,106.0,171.0,999.0,778.0,125.0,444.0,16.0,16.0,10.0,14.0,16.0,12.0,12.0,17.0,-0.41324842429227254,-0.3256596155737399,-0.1439144502980928,-0.27481131439181367,-0.5992514331336223,-0.14521294097003787,0.11052804346098455,0.10692037127357722,-0.14884442863403985,-0.47357144640767185,-0.24886534508594874,-0.23254036100769476,-0.40402268693436866,-0.15966314692279715,-0.10977722861187907,-0.24222601231967017,-0.2962386996837918,-0.0570856554479868,-0.26055786727889907,-0.22060475904224083,-0.026165820166395456,-0.10268516692125021,-0.16511387693891488,-0.2686502165998588,-0.06567544695375675,-0.12257756080051502,0.08190821811155191,-0.11839984060073169,-0.31938354299222527,-0.1340332981389195,-0.04096920664070597,-0.09713879175615159,1
13.325,3.65,2.3,3.6,20.225,18.85,2.1,7.425,885.0,249.0,137.0,221.0,1307.0,1026.0,130.0,491.0,16.0,15.0,9.0,12.0,21.0,17.0,16.0,17.0,-0.5935974321375281,-0.3018180025697592,-0.2772774870977669,-0.3761986549773924,-0.6317126839724939,-0.23208779703753013,-0.12882814951214425,-0.2815842856636712,-0.26027540474842015,-0.6394257854963906,-0.21520820193119197,-0.4753335922813533,-0.5204241187629406,-0.49824263605551083,-0.31036363656709265,-0.48489661322201855,-0.6376237414533237,-0.5447288970460364,-0.30116426590034917,-0.23167465507057142,-0.22069714723361758,-0.4521007441220161,-0.1418796673975271,-0.36160457729466416,-0.3823826940400799,-0.28971108640094223,-0.11779274527514995,-0.07064675679093689,-0.35303976370238327,-0.17443679817233926,-0.17678860468735041,-0.0577631058323221,1
12.375,3.525,1.925,2.65,16.425,16.5,2.1,7.8,770.0,219.0,122.0,155.0,1014.0,1102.0,122.0,507.0,16.0,14.0,16.0,15.0,18.0,21.0,14.0,20.0,-0.3452905940390237,-0.10589945509363667,-0.3307848553861893,-0.19181316473020132,-0.5509081677541863,-0.4016924180572008,-0.24963255764301812,-0.15549739390481865,-0.39817621061689135,-0.34019926403567713,-0.12165053075562662,-0.12498822222839089,-0.4500758946449042,-0.27145117087555437,0.05210711292742491,-0.21482089302371796,-0.5171449337044001,-0.31651165203409337,-0.1678585377556858,-0.127201299652984,-0.6262159523318406,-0.43157769048449507,-0.2094845480981419,-0.11846039959543346,-0.5305025485247227,-0.5255502392664183,-0.29771551793139855,-0.06217307934791273,-0.375516507846122,-0.3482578446552852,-0.2767645573524044,-0.18295750521349533,1
12.225,2.375,2.75,2.5,18.425,17.45,1.875,6.925,814.0,133.0,161.0,163.0,1142.0,1093.0,117.0,465.0,13.0,12.0,18.0,18.0,15.0,19.0,12.0,21.0,-0.21754597667921388,-0.06332636689512185,0.05153048050577394,-0.3125041437281174,-0.2374645485162156,-0.06872141141646101,-0.42437969176053114,-0.24241276306149603,-0.3076011784878209,-0.1609729449726255,-0.21444180564624243,-0.2916797062481469,-0.6215886718053536,-0.3782723853369854,-0.17350315763612317,-0.0999318221569419,-0.5916945519428708,-0.5973148021806052,-0.44846571618838166,-0.5610476200059373,-0.39851724945681055,-0.2535434953222984,-0.3663339307212968,-0.3222981608615205,-0.10960314184454281,-0.3369720052626795,-0.234413665298963,-0.22286024529348822,-0.3027932245969427,-0.07772379623645469,-0.09521876445847581,-0.5864860111896293,1
10.0,2.775,2.65,2.6,19.4,16.475,2.625,4.625,560.0,147.0,133.0,158.0,1175.0,1026.0,156.0,258.0,15.0,12.0,14.0,16.0,16.0,14.0,14.0,12.0,0.0388257057959034,-0.10282804238356241,-0.11963337660805147,-0.1331050614264541,-0.38973209079315463,-0.4052652473982371,-0.18463893808265838,-0.27565380858810895,0.01867364704194347,-0.130295442968899,-0.27744654302717964,-0.12528696054635677,-0.2439196432030635,-0.07854137601411512,0.1204547660858083,0.07213238437185708,-0.37448237946188934,-0.44491774102564585,-0.23782610668260046,-0.3604629254579029,-0.23316850344449597,-0.3193591231229889,-0.3138698218351042,-0.27343816476585425,-0.2319765869649456,-0.2959148880588393,-0.32716433152615315,-0.045790944596112,-0.13464205322345363,-0.07245576773733221,-0.043005912458599437,0.008642454044999234,1
11.25,3.275,2.7,2.95,15.15,16.15,3.475,4.15,538.0,211.0,150.0,160.0,874.0,940.0,217.0,242.0,16.0,16.0,16.0,16.0,17.0,14.0,16.0,15.0,0.1909398339475418,-0.22044512278120534,-0.08471698046647624,0.01772661644667178,-0.5177382135268157,-0.691941987586794,-0.24617239889343093,-0.34194088327759786,-0.20523776198543195,-0.34230446714342466,-0.22604822531920038,-0.3615998946897463,-0.3315381800027249,-0.3966671408016449,-0.3439503657411176,-0.11913153527617742,-0.09473151184604635,-0.5525129119768339,-0.12271902112422116,-0.5277491203334859,-0.01238504520868611,-0.6763208441214832,-0.21286777170029908,-0.33778921971990455,-0.30994304495295133,-0.14896607628217798,-0.1267546823566067,-0.12503752059527773,-0.3648446364954342,-0.25240934114732644,-0.0832617534059085,-0.012521252800794257,1
9.925,2.725,2.05,2.45,19.225,16.525,3.4,6.025,653.0,181.0,113.0,137.0,1111.0,888.0,222.0,385.0,19.0,14.0,14.0,10.0,16.0,12.0,17.0,16.0,-0.36757117945051027,0.00047976513682345306,-0.3469863208811941,-0.39632584762127243,-0.5010196944633993,-0.17990780643214507,-0.1418077860582907,-0.36522344174114507,-0.303027747251609,-0.09914510743779653,-0.3261039127624878,-0.4050412036930278,-0.17167099051325455,-0.25771088618049576,-0.287532295820789,-0.09913627476545461,-0.4655821541401726,-0.3855556062688164,-0.41177209868510417,-0.5463085505480274,-0.27435377471721506,-0.31560938696012736,-0.44599499921179087,-0.544269512138281,-0.40525216104272466,-0.1253827680464307,-0.06765427414720893,-0.18070582605175858,-0.8857793015772862,-0.6468073224851303,-0.5460764506386651,-0.43573734986563434,1
13.75,3.625,2.0,2.05,17.75,18.65,3.3,7.1,980.0,244.0,108.0,108.0,1127.0,1088.0,206.0,436.0,19.0,18.0,11.0,13.0,18.0,15.0,13.0,14.0,-0.6526735560627128,-0.03331444250714497,0.34633993790959167,0.08761915425367475,-0.4393104029159649,-0.44090303028394806,-0.18263469146587355,-0.4446431123657923,-0.2207106525317735,-0.3628744551739923,-0.3288264653082973,-0.5088125817683068,-0.0064679185597864425,-0.10327304191023946,-0.332542256929605,-0.14742061464856704,-0.5175642536121373,-0.5567251715407686,-0.4668018778278738,-0.5005819831102228,-0.3841015356339383,-0.5953349864108824,-0.4901411541348828,-0.44709520777657114,-0.6134285106830614,-0.40876301632644957,-0.3534663127170153,-0.3036364695624478,-0.14666384448452263,-0.11070991854806292,-0.09262076002545137,-0.20348698618182542,1
14.975,4.25,1.95,2.1,14.8,14.65,2.475,6.8,1000.0,294.0,133.0,130.0,935.0,898.0,128.0,364.0,16.0,19.0,18.0,16.0,17.0,15.0,13.0,17.0,-0.49648729961809296,-0.06789772749617107,-0.013272928344223821,-0.055778118307421506,-0.5556597594241818,-0.2034683542556396,-0.002401747229693349,-0.11377261211455642,-0.271081316098429,-0.07563526047615166,-0.1551620714303094,-0.09344786241104347,-0.19111517230794497,0.009954195749280316,-0.15418966640345927,0.11360278647501516,-0.450394842562745,-0.4454402566490534,-0.20151122075737588,-0.40882245079008855,-0.261498882039573,-0.2614742277924789,-0.34037512252136093,-0.4317259774032446,-0.2277386717272713,-0.08026120759015891,-0.41699300958211166,-0.3606787618488467,0.0017816482963177757,-0.32279508218118574,-0.1258030108558023,-0.07786282710434551,1
11.35,3.575,2.35,2.3,13.075,14.75,2.075,5.725,646.0,218.0,124.0,123.0,838.0,1007.0,136.0,400.0,13.0,12.0,14.0,12.0,17.0,21.0,13.0,20.0,-0.15137494930994327,-0.1434700825810224,-0.352168228236773,-0.2708165256298851,-0.44649349513505737,-0.4172309960352512,-0.2772047101176064,-0.37124614380751303,-0.3390659487660397,-0.23379426467895006,-0.5842494313486228,-0.24749165473639553,-0.1847550019693411,-0.22910882064572088,-0.4645138812025465,-0.01967677103772668,-0.5593376923692943,-0.23825336122449617,-0.4309921142260422,-0.30078448836553007,-0.36878006869356467,-0.19368329092088,-0.474991885839374,-0.2751205667218357,-0.3536400566662789,-0.09201291776405644,-0.03555314950725015,-0.3395544509343977,-0.7053121287977626,-0.5382499839323049,-0.21792928422546454,-0.31964878820508674,1
15.65,3.85,2.625,3.075,14.325,17.2,1.925,5.125,953.0,243.0,144.0,165.0,991.0,1125.0,112.0,310.0,19.0,17.0,11.0,13.0,20.0,17.0,14.0,16.0,-0.24733864010904907,0.04641205228705802,-0.5649512106380844,-0.22382538305548907,-0.4863775750537599,-0.3663068182164193,-0.45526925026332754,-0.5648242093088401,-0.41364868156726003,-0.47682169893653387,-0.425059143429648,-0.23906035058244762,-0.509580879952163,-0.6386516164614439,-0.3723238957805031,-0.359685244302344,-0.9504617066305341,-0.7486140048147873,-0.5646605506610053,-0.28339026914732374,-0.5353441426281544,-0.5755796490476648,-0.5703998212916748,-0.23054696398206817,-0.1928926707502734,-0.23923869259343386,-0.13147835733577068,0.08332647101680009,-0.15907174347347516,-0.578967950383269,-0.1154205084471501,-0.219898150581011,1
14.175,4.05,2.175,3.075,16.325,15.825,2.4,6.425,829.0,244.0,120.0,164.0,1091.0,1035.0,138.0,416.0,10.0,13.0,13.0,15.0,18.0,17.0,14.0,19.0,-0.12095546310469214,-0.018174240000459082,-0.4932442704766025,-0.1473244437576249,-0.32197216740889856,-0.40558923548666953,-0.17270089352378767,-0.31563533818375566,-0.35093167288213944,-0.25180467825407965,-0.28676910131265143,-0.10625091611307254,-0.37810581903440754,-0.5302553039271528,-0.29712717134605593,-0.45335467715219047,-0.505263136597537,-0.1067340134201401,-0.15778350147246717,-0.4781181029455835,-0.49441723472461396,-0.3434126030247344,-0.481316217551087,-0.4075616473412795,-0.3268675198257005,-0.4314490890070034,-0.2135081956486079,-0.1100470544138211,-0.2752254843020489,-0.3293106208184146,0.009189371672760035,-0.1667777525675343,1
15.425,3.85,1.725,2.25,14.25,16.4,1.875,6.55,912.0,237.0,108.0,126.0,978.0,1111.0,113.0,446.0,15.0,12.0,10.0,14.0,17.0,22.0,10.0,19.0,-0.29210933041188974,-0.33931141810691895,-0.30134595836407424,-0.4471115989557268,-0.38308661904795194,-0.5025447544618045,-0.04215924875885812,-0.2660673228988562,-0.2587925422878792,-0.4111785735224055,-0.1122203085632184,-0.32609321134840613,-0.16963650703085295,-0.35254428713120645,-0.07820839658698503,-0.3880860446186765,-0.7628884651491709,-0.6391852478446947,-0.5857409985284601,-0.4770023016764114,-0.5000762598227628,-0.32457163443417203,0.07472957067787218,-0.16082970275271538,-0.4161192990067714,-0.19547548357740502,0.08357708564950328,0.08441156205719641,-0.19580398259186013,-0.32124978446290997,-0.021743055969847748,-0.2048095749783932,1
9.35,3.475,1.975,2.225,19.825,19.8,1.875,4.5,548.0,208.0,110.0,120.0,1322.0,1344.0,112.0,302.0,14.0,16.0,13.0,15.0,17.0,19.0,13.0,14.0,-0.137040250036411,-0.33417382879774876,-0.1949665369364809,-0.11093726658090201,-0.44591791220190685,-0.445819406263364,-0.38619305182531743,-0.31727800159056785,-0.15530013345138816,-0.2747681728443302,-0.19500417196722425,-0.36578320136054565,-0.174564486278124,-0.3878498203628554,-0.2254039556531706,-0.10386478480199657,-0.6627843400282178,-0.2923699082380619,-0.2994711417877833,-0.2695250038251452,-0.5910160323841497,-0.17363077613477473,-0.2577710702880709,-0.34976341531054345,-0.44405186177065986,-0.0951509522616647,-0.1955401623281788,0.06097910775892288,-0.5036500997393363,-0.38403812225123873,-0.274037186681414,-0.21392072055468006,1
13.875,3.7,2.325,3.1,18.55,18.4,1.875,4.6,977.0,246.0,133.0,178.0,1203.0,1134.0,112.0,294.0,21.0,15.0,12.0,14.0,24.0,14.0,15.0,17.0,-0.4802479727995843,-0.318060564500146,-0.25267106665083294,-0.49307518781960274,-0.5873517494691636,-0.283595250407871,-0.49583544460160794,-0.6334902954410889,-0.3052411882602948,-0.1618069098719698,-0.23309872961389067,-0.4456553767775,-0.42397341638430724,-0.18900794404120758,-0.36576156686410066,-0.5097760733463708,-0.5432612053547465,-0.21354293130368598,-0.31595851375447287,-0.3296604300878858,-0.5925355162794667,-0.29266903725338395,-0.4954255760332028,-0.5035272635458318,-0.3839790651145165,-0.24708938109743936,-0.2543547945601388,-0.3321231139226203,-0.6758272992451156,-0.28998259248731795,-0.1598509490415681,-0.2683066877413051,1
12.775,2.7,1.95,2.375,15.7,14.875,2.15,4.75,742.0,142.0,110.0,156.0,1109.0,991.0,136.0,279.0,10.0,12.0,18.0,16.0,18.0,20.0,13.0,16.0,-0.2807063036557823,-0.39662986881786194,-0.29661444833294137,-0.16388302252158896,-0.23573067890435706,-0.37782873767930275,-0.3716565021947671,-0.3844917263846952,-0.2613252335513089,-0.13759591914393293,-0.30715354674624623,-0.1428317702682135,-0.42002005197434406,0.009911314627583987,-0.17541116276215718,-0.2968036852767012,-0.56699088315915,-0.23947713265191847,-0.4818019769129288,-0.3404402914213811,-0.5807007308605044,-0.30637614824223164,-0.3807336695445481,-0.4328221778056459,-0.5458015427595978,-0.12959396903967918,-0.14979190766839318,0.015445016393158787,-0.3904630560641765,-0.585675159650155,-0.4060306769705566,-0.41748536360437255,1
9.825,2.65,2.525,2.975,18.5,18.275,2.1,4.575,608.0,157.0,154.0,200.0,1276.0,1221.0,108.0,289.0,18.0,13.0,14.0,16.0,18.0,18.0,12.0,19.0,-0.3004675749880485,-0.300259657336525,-0.2801033986815701,-0.44153419007361466,-0.21063070546500934,-0.2726078344336535,-0.07717282738520924,-0.4789682181707844,-0.4608855919072626,-0.5164272883241838,-0.438892632390462,-0.3937961528511948,-0.5188427570166996,-0.37200309936454806,-0.35210294907160894,-0.44528418416325394,-0.788431507528776,-0.6375662140596786,-0.4323177453395762,-0.20124846492820736,-0.6610368105210107,-0.5565346555603778,-0.53913290979406,-0.35214835108507553,-0.19792926378320666,0.03129058741602138,0.19829408179677968,-0.13565274976713843,-0.5026965957069216,-0.17471296389588864,0.04024239381099051,-0.1788647552718066,1
10.9,3.05,2.2,2.625,18.55,18.325,2.075,4.425,612.0,196.0,121.0,165.0,1253.0,1237.0,141.0,323.0,12.0,15.0,10.0,14.0,19.0,20.0,18.0,21.0,-0.0005581997707923945,-0.39282511464086,-0.15065414520250014,-0.17806637937496372,-0.6400630426212481,-0.4836902376742036,-0.2702178244797816,-0.3110478235656096,-0.19123770287087852,-0.2814706507678942,0.01533661167157222,-0.04815227859969845,-0.2692383364719907,-0.21048845920539871,0.08086470781628478,-0.18540687820541624,-0.7381175564305121,-0.570806013560574,-0.6010039343189032,-0.5107373449780918,-0.6810732734899062,-0.5734272665894204,-0.5396958351755606,-0.4146654121636626,-0.3889517995262773,0.04946934889090764,0.06706898642240698,-0.25781845953214283,-0.9167502005126189,-0.48803294439544154,-0.323773061268402,-0.2313862274760764,1
13.275,3.325,2.125,2.575,15.6,15.55,2.0,4.975,803.0,203.0,119.0,170.0,1009.0,932.0,124.0,319.0,16.0,16.0,12.0,14.0,13.0,16.0,12.0,21.0,-0.2647347165382286,0.036554663240396884,0.1759257696035394,-0.29071254382332384,-0.46420103087132064,-0.1667757991718183,-0.10299096998588404,-0.32779041443382445,-0.12554007586269625,-0.3480203434957135,0.0040433192450256075,-0.4666612923535178,-0.34492079803805603,-0.30524374327329085,0.06656107792111049,-0.1761843246875639,-0.4240539679896987,-0.262030003621148,-0.2674975797132768,-0.33581116619790197,-0.19797510537036958,-0.4386646327481874,0.06787834739290029,-0.3548264679407993,-0.18334214333560583,0.1783746383141115,-0.11426313426769817,-0.14847328061594103,-0.11413928719684326,-0.008086142455018522,-0.03339288603278181,0.21224617807763682,1
13.25,3.425,2.05,3.2,12.525,15.175,1.875,6.3,762.0,184.0,95.0,162.0,769.0,918.0,111.0,388.0,14.0,10.0,12.0,12.0,20.0,18.0,9.0,20.0,-0.1682384753755355,-0.21342325499475506,-0.053472419301805026,-0.32849496587274485,-0.2506536563199558,-0.30770552274513324,-0.33723159944805753,-0.2730997931590162,0.024082116263124426,-0.20879304442745775,-0.13892735259982053,-0.10874969630979954,-0.13281625383944295,-0.17545169351610568,-0.15219513513222985,-0.2227250490809174,-0.43816844414196826,-0.18647329165213786,-0.15680285539857355,-0.15938860778408787,-0.23776403550981598,-0.5648924209898835,0.08307199047391657,-0.3663123264849077,-0.12629062861208673,-0.0742895789231359,-0.053372261975599494,0.1012133461194062,-0.2400927342970832,-0.15747458549606683,-0.04269107644785521,-0.07722896194127943,1
12.05,3.575,2.575,4.075,17.5,20.925,2.175,4.8,732.0,217.0,126.0,208.0,1141.0,1131.0,134.0,265.0,21.0,15.0,8.0,14.0,18.0,14.0,16.0,17.0,-0.3271741120589894,-0.20855853095765703,-0.22661451165377194,-0.4135265672334693,-0.5580465371887195,-0.6226688592961508,-0.5344158778842985,-0.5808041230384401,-0.12384625111689766,-0.313042997687907,-0.28757784377472406,-0.2954853014380426,-0.12892159563714073,-0.21024822508811464,-0.25018331923170517,-0.29269894208481306,-0.6567012047492098,-0.5340242481557154,-0.401796394816031,-0.36955491279234015,-0.3493755777344776,-0.5511770678790405,-0.44821221250767507,-0.4806879700411116,-0.42309194393466293,-0.16853164902859796,-0.3199456477472864,-0.41777423624481297,-0.16433028342921946,-0.3520353177548622,-0.034883477937374674,-0.20865764388111419,1
16.125,3.3,2.125,3.0,18.75,18.85,2.125,7.7,1068.0,216.0,109.0,156.0,1180.0,1145.0,127.0,438.0,21.0,17.0,8.0,13.0,16.0,18.0,11.0,15.0,-0.3557243977201298,-0.10433943305845927,0.04881062908270136,-0.02336509839847445,-0.45031492759987746,-0.03278814456274372,0.015243729919918085,-0.30583144737897916,0.008514911708254294,-0.39042080948721797,-0.062036116555901834,-0.32676700451723084,-0.06273436309450334,-0.36383681413983,-0.23625879457418755,-0.17036279431810086,-0.6904950143601765,-0.6688128134453946,-0.348934461562608,-0.4397399170546753,-0.46276463637508425,-0.6943742643234265,-0.39780942060395674,-0.5776454693317089,-0.2559195734539225,-0.2549055289041051,-0.1746893962551014,-0.2288413350835494,-0.4616182780393863,-0.5614025727809652,-0.39423350034458804,-0.62154033471696,1
