0,1,2,3,4,5,6,7,8,9,10,11,12,13,14,15,16,17,18,19,20,21,22,23,24,25,26,27,28,29,30,31,32,33,34,35,36,37,38,39,40,41,42,43,44,45,46,47,48,49,50,51,52,53,54,55,Gesture
12.6,15.7,4.175,3.525,16.7,18.6,3.525,11.125,794.0,1004.0,273.0,230.0,1054.0,1155.0,197.0,755.0,20.0,19.0,20.0,16.0,17.0,21.0,20.0,20.0,-0.47004089708554947,-0.5115047382106166,-0.17413859695418693,-0.28245663087834494,-0.5685395586769318,-0.3934687861189068,-0.21873339241079215,-0.2664199234388412,-0.6319693138224076,-0.3468201419829116,-0.21676409118943202,-0.18454142261194778,-0.4594051053635631,-0.21838014594311028,-0.2394429271899787,-0.4337513304868043,-0.3040240278341717,-0.2582542498510982,0.13114730473972086,-0.35641000267233136,-0.21143359044347104,-0.06875003784392396,0.056560267417231795,-0.34552189339828276,-0.20550731681216083,-0.22187889051919832,-0.25033443756298185,-0.11171588666868063,-0.5973543810305136,-0.3841134265568497,-0.2751418199412213,-0.2521538978043457,2
9.375,11.05,3.825,3.325,9.45,19.425,2.675,9.875,598.0,615.0,206.0,201.0,620.0,1282.0,186.0,648.0,14.0,16.0,13.0,14.0,18.0,18.0,13.0,17.0,-0.33751516780189894,-0.15697419129215948,-0.14581983902756418,-0.2987103603496726,-0.17357714664477802,-0.08346316722281881,-0.057911959128868096,0.11831606835620087,-0.03401409249005007,0.0016647213975536897,-0.4119789093822833,-0.06822777054275246,-0.2510779778003679,-0.21443858275727729,-0.21281206096909058,-0.3684055792570548,-0.33236438482928554,-0.1788173002889247,-0.358006470926668,-0.4202041724634502,-0.4698960428508644,0.07917087184321575,-0.12102496207348369,-0.20073528513799607,-0.4035218492014964,-0.07452489582386179,-0.09682008374438424,-0.30908399657700236,-0.41114319000165567,-0.18791516140383796,-0.059029534385813834,-0.07254355262183597,2
9.025,11.275,3.85,4.45,14.8,26.4,4.0,8.05,621.0,738.0,222.0,234.0,1033.0,1805.0,258.0,475.0,18.0,18.0,16.0,11.0,21.0,20.0,14.0,14.0,-0.4958096211371778,-0.2886038100344359,-0.21000900620850763,-0.2095580111159717,-0.4678642506765636,-0.30238716957017053,-0.17319139407272646,-0.21171078875173435,0.0010754929727318217,-0.024728165811559802,-0.1084376874051269,-0.20185960405311035,0.09975797617219956,-0.3266597791619976,-0.060154666768406764,-0.38477810623990694,-0.7411208404949037,-0.5832582459566495,-0.28146227523693673,-0.33628594439268455,-0.6257080495436268,-0.4549277798284065,-0.2228916681200558,-0.32868653407405934,-0.3497586849062936,-0.30558383496772346,-0.13313407482902853,-0.3465904648905582,-0.2313565217136224,-0.3280797367455891,-0.014101393563570052,-0.16468575124742524,2
12.025,13.325,4.55,4.2,16.025,17.8,3.35,10.8,838.0,799.0,266.0,252.0,1049.0,1125.0,173.0,734.0,22.0,17.0,20.0,13.0,19.0,22.0,12.0,18.0,-0.34147976403191044,0.038735848107634675,0.2171572146501932,-0.10539129700154692,-0.3983294412005213,-0.3728077080613674,-0.1955182683335854,-0.028784640201597777,-0.1648374147676309,-0.189771134191379,-0.17453505840822164,-0.23415109991728558,-0.2652562513255937,-0.013571424676346597,-0.11266873141878839,-0.2874790391378181,-0.6079239768780574,-0.36325263336162755,-0.20063256669360177,-0.10732299343860682,-0.223069250750232,-0.3493250818108293,-0.18042498218904054,-0.18573344314635257,-0.04176415710807018,-0.06889875176879287,-0.15498398249158463,-0.16588871741214234,-0.48609695110891527,-0.0758672112531455,-0.1137335023495888,-0.22159201264885597,2
10.35,14.225,3.6,3.875,9.975,16.575,3.25,9.7,670.0,893.0,233.0,214.0,560.0,1133.0,193.0,617.0,18.0,19.0,17.0,11.0,16.0,16.0,11.0,17.0,-0.22011473367799927,-0.3389733995214593,-0.054790456250026716,-0.2970188792912247,-0.7353068135545395,-0.791667769146923,-0.678479704964331,-0.45520542172435663,-0.28482432601137675,-0.24299839009836635,0.17521958604959112,-0.1373866479420279,-0.171300135908342,-0.20724216692506614,-0.24438625717151372,-0.4568893329825969,-0.2883948220739172,-0.46228388417540384,-0.19764050022886415,-0.25303233352553495,-0.5622663447537946,-0.4419167008838199,-0.10213436904556433,-0.2026360577906307,-0.30712143406243725,-0.4952706003219334,-0.2215972277129987,-0.3651602425495023,-0.47149730977154547,-0.34080749064136906,-0.09321842069516381,-0.26054721635302264,2
12.65,14.7,5.0,4.15,11.025,15.325,3.5,9.55,850.0,967.0,295.0,202.0,745.0,865.0,197.0,579.0,14.0,18.0,14.0,10.0,19.0,14.0,13.0,14.0,-0.5937759735862298,-0.5358499946394917,-0.352940194993807,-0.2234378654733046,-0.335359058266901,-0.44326210425619317,-0.18698129220013773,-0.2976531685174617,-0.27789859663526056,-0.31551060375572754,-0.1907700223125779,-0.3613162034145779,0.1872814487353077,-0.03860247242566603,-0.29709627834658814,-0.13835703170795557,-0.5392349654486397,-0.022607201912519505,0.2260673973406247,0.07050269173555854,-0.11896916685904821,-0.3238550764912262,-0.08768390407605639,-0.05431850935577588,-0.1606276350625138,-0.12948641872603403,-0.27223232095648725,-0.018539619043185438,-0.3891877370675623,-0.4892945755354732,-0.06960667274610183,-0.2113385548420837,2
12.6,15.5,4.65,4.8,10.95,20.475,4.05,8.025,858.0,956.0,248.0,223.0,673.0,1078.0,218.0,507.0,18.0,16.0,12.0,14.0,16.0,15.0,10.0,17.0,-0.7882796345191714,-0.6156926172946648,-0.2776140655023639,-0.3158446122375208,-0.31223740795312704,-0.28530732729956176,-0.10279897043823744,-0.3448183373082642,-0.07158362452316902,-0.09879388158060111,-0.40214220172952553,-0.17250554614740846,-0.006268295949616625,-0.0767873107118766,-0.4003014871867598,-0.3295638079782333,-0.2796831871637945,-0.265938986327811,-0.08413635696035773,0.017110375502505954,-0.0599972497082595,-0.2643287104528146,-0.3400010026717612,-0.2069752971262597,-0.2396776486617293,-0.018863669455713696,-0.3702283499414717,-0.20999866958440094,-0.32099847717836766,-0.5187803319560511,-0.043151759575613034,-0.10909403408499597,2
20.175,21.45,7.0,4.85,15.375,21.7,3.975,9.725,1261.0,1453.0,448.0,254.0,941.0,1241.0,216.0,650.0,14.0,19.0,17.0,17.0,20.0,17.0,15.0,18.0,-0.3612443111723466,-0.35478427268854595,-0.2812298676397575,-0.19605504968079165,-0.4718545613996044,-0.4562407365475499,-0.021105274802127545,-0.26404403037482155,-0.33540909027451027,-0.1949863942794107,-0.12388860876005195,-0.09808293987368819,-0.2782977897551835,-0.4241190678691108,-0.16342534992942614,-0.24094562349621237,-0.26269070253166893,-0.06499345374823663,-0.29150806501278836,-0.2493913721285452,-0.014297076217765462,-0.032356493175997376,-0.3011424272487459,-0.14206096858779418,-0.09436421737526061,-0.23100902930414513,-0.10886978967408313,-0.37300357278701246,-0.24351135080439087,-0.08625869796974239,0.020326159977520367,-0.20384412501547863,2
13.375,12.675,4.925,3.625,10.975,19.075,3.325,10.95,850.0,840.0,309.0,250.0,708.0,1132.0,209.0,679.0,20.0,19.0,19.0,17.0,14.0,15.0,15.0,18.0,-0.17919975307907418,0.14646267988359854,0.07779935159347226,-0.032083460124664474,-0.41291039430677623,0.06587071803528759,-0.05715124329014237,-0.08981025634606947,-0.40491131774532363,-0.3022557660162892,-0.3958952580177751,-0.02560416924739527,-0.6344973034597676,-0.273408609859272,-0.2130973549311084,-0.14565589207547883,-0.33088331220430767,-0.27228055349924274,-0.15762817636695917,-0.3269368529505707,-0.3231668150506216,-0.3446190333755617,-0.1955925049747976,0.10618766029207363,-0.4455619201736767,-0.145402128935171,-0.22654976123890286,-0.21348811729333084,-0.3047916679169527,-0.23330630817809406,-0.10066007015360444,-0.4343428659418228,2
13.1,16.3,4.85,3.3,11.95,18.375,3.075,9.6,812.0,1083.0,325.0,177.0,770.0,1096.0,171.0,650.0,17.0,20.0,18.0,14.0,17.0,15.0,14.0,20.0,-0.18556690490451844,-0.029520055281584724,-0.25659707074097243,0.0027259498101266473,-0.22925221739340904,0.01182312608437082,-0.4146934775166965,0.015640179553850008,-0.43464788366563073,-0.1995934768850387,-0.40342196982223777,0.0899796155727118,-0.12480819954384122,0.07003617083333334,-0.16021411842058897,-0.3403306468582788,-0.4060919009078033,-0.25189437352492894,-0.16816297928226143,-0.015314318569268343,-0.6024994049899294,-0.5593673212112954,-0.4270061653191192,-0.3435414074680119,-0.27399411914476984,-0.12257802752316176,-0.20549084473903903,-0.09832872068397933,-0.38286960087724065,-0.11738694167011898,-0.19951155893381617,0.020928237172961116,2
13.3,18.625,4.2,4.25,10.8,18.95,3.025,8.875,884.0,1235.0,268.0,206.0,755.0,1216.0,180.0,576.0,19.0,18.0,18.0,12.0,22.0,18.0,13.0,17.0,-0.2571649267430213,-0.3578447207012604,-0.4273978567418783,-0.14931748309186446,-0.43657031592408724,-0.04081582786460612,-0.39757333674108536,-0.30251243064548744,-0.276988888041035,-0.06373551988843947,0.023793961196135353,-0.14812401533834124,0.2073528094773503,-0.3422722641005509,0.0634331442605421,-0.47940626434748995,-0.8303105593114689,-0.5397886562716743,-0.43621406480804803,-0.12693087127931837,-0.5758349714081947,-0.39023830473119847,-0.13877181244895262,-0.20140130144612967,-0.29249795958991487,0.0761284872616706,-0.0656524880915226,-0.5182742746754326,-0.3687888808466648,0.017380264855517705,-0.08043892938283106,-0.12039791677506208,2
12.475,14.5,5.425,4.8,11.375,12.775,2.625,9.7,901.0,726.0,346.0,281.0,769.0,731.0,159.0,621.0,19.0,16.0,16.0,11.0,19.0,15.0,17.0,21.0,-0.23861165045250982,-0.19006305814709826,-0.11341813730160523,-0.09884023792601837,0.03924585846037588,0.013240486934359683,-0.2805498981985987,-0.2925135782640625,-0.3542382387312911,-0.308252267606249,0.027504404671681634,-0.14398681624331952,-0.059376247975862426,-0.3454518821751581,-0.29444161748653985,-0.32045963529219434,-0.45141283654613773,0.08092828814764899,-0.022311129202827917,-0.1370311986811702,-0.010925508353712947,-0.28575270246049367,-0.18620232693258015,0.06400845218404444,-0.22421079913040565,0.0026395107978292314,-0.18749945367725088,-0.10143591824182117,-0.3179118257400937,-0.04727510574472623,0.07247212400139574,0.019583829327369223,2
11.85,18.325,5.2,4.925,13.325,21.95,3.75,9.925,780.0,1164.0,342.0,251.0,793.0,1455.0,249.0,645.0,19.0,20.0,15.0,12.0,19.0,18.0,19.0,17.0,-0.1438524796625598,-0.246354335993876,-0.1129509683436281,-0.1713405621448006,-0.23583521708298516,-0.2117520979951257,-0.00675128446501322,-0.22768226362624047,-0.33759461941369523,-0.07283721531194198,-0.20477385671119847,-0.22162362766331126,-0.12368171663529498,-0.3412390433803374,-0.3462537172156898,-0.21869379996806515,-0.40754073945253394,-0.31630053348930537,-0.2289006299260871,-0.2415592026148088,-0.5150256058688826,-0.274270074634029,-0.2865154738341921,-0.20717869357873872,-0.5586404723837639,-0.20519250616770401,-0.23779749106992504,-0.2151267053304186,-0.4430035214512952,-0.3588404457732346,-0.3118521006850632,-0.24523214372018892,2
16.4,17.85,6.025,5.425,16.125,21.15,3.95,11.75,1165.0,1120.0,391.0,344.0,1008.0,1256.0,279.0,787.0,19.0,19.0,19.0,18.0,16.0,19.0,24.0,23.0,-0.49042976836080376,-0.3546084413144956,-0.3748019032658614,-0.40174238882411034,-0.3432959278812404,-0.35146579913251635,-0.2520274032841527,0.004575474105775599,-0.3547756139677768,0.07418481243631012,-0.0015260301185551035,-0.01013023803706012,-0.42566838055771833,-0.2947557003296567,-0.4338794761662071,-0.14958772891037667,-0.4138321500901186,-0.2934050236278318,-0.27002007464713224,-0.5321043087005028,-0.2147254411443171,-0.19518242327574525,-0.16235525634560083,-0.31817747773492244,-0.6486524064049236,-0.2554658407078327,-0.4920620706607227,-0.2781952556564493,-0.409954400084891,-0.001816918817971057,-0.3011733903056465,-0.3893487979489047,2
16.95,16.85,5.875,5.275,13.125,22.0,3.575,9.975,1233.0,1034.0,357.0,315.0,846.0,1361.0,226.0,637.0,18.0,16.0,14.0,13.0,16.0,17.0,16.0,15.0,-0.6158242787661626,-0.19210109023196315,-0.0736031124568046,0.021851689612275238,-0.46345263678413867,-0.4844842203824332,-0.5070704692735998,-0.027969412183090507,-0.39571864333599804,-0.2905600238295649,-0.25311856820596695,0.0561518880108991,-0.5389582702160272,-0.5341208028074149,-0.5579061968386532,-0.25488478341599025,-0.23099982677805803,-0.0448169605942507,-0.22369968183963493,-0.04806601221141892,-0.27505433011461977,-0.36864086337792884,-0.4262527882839223,-0.11912250130369471,-0.7278136619022062,-0.7987845126405325,-0.5504213925744866,-0.4576871589702722,-0.3469723262400295,-0.18100094257769697,-0.23269693410037137,-0.222098494209102,2
13.375,17.075,3.925,5.65,16.15,11.85,2.8,8.275,880.0,1257.0,264.0,363.0,1117.0,717.0,171.0,549.0,18.0,24.0,19.0,19.0,21.0,18.0,17.0,19.0,-0.542962665242068,-0.4948085953990917,-0.25980322804993156,-0.28550998535212013,-0.6179979662255016,-0.28338694515911544,-0.4407157138398121,-0.4575847637964073,-0.4879780963082037,-0.19656219507451098,-0.09280239534189973,0.06253633508640266,-0.5378799499000126,-0.2228596536729793,-0.27419669906812383,-0.2187708455933819,-0.44921548549247003,-0.11571277442101535,0.05926175619327701,-0.2850383366118033,-0.40398399404332697,-0.41985706070363976,-0.2998090878481171,-0.3034422908135577,-0.15440977345997497,-0.020572482029203122,0.018784289417725288,-0.04886773141582121,-0.4496078220297573,-0.13449303710246888,0.24212938383574023,0.05715577909542224,2
10.125,14.525,3.675,4.325,11.725,13.9,2.45,8.775,716.0,967.0,235.0,267.0,773.0,886.0,148.0,575.0,22.0,18.0,15.0,15.0,17.0,20.0,13.0,17.0,-0.47406649007782936,-0.10909350349743337,0.06272035138985244,0.09404277875697968,-0.42476160420287584,-0.1580748897545743,-0.3536200541687606,-0.326938808282983,-0.26868044650511896,0.11374368695697429,-0.16771777258197737,-0.17521520378025215,-0.4574716500952876,-0.34852897805240485,-0.22725358409329452,-0.38455238805304226,-0.42900951670871323,-0.1848224997812903,-0.27010504062866797,-0.20942303002370127,-0.20585672539702413,-0.23732598056732856,0.025516462318098874,-0.2566569813748859,-0.22584389356508106,-0.08374607140020084,0.10540098952918266,-0.023215575644636628,-0.2293840857464483,-0.031452858379902124,0.07276406372071302,-0.4173168212047589,2
9.025,15.625,5.375,4.475,14.325,20.575,3.0,7.975,601.0,1130.0,385.0,258.0,966.0,1314.0,183.0,569.0,17.0,17.0,17.0,17.0,21.0,16.0,15.0,19.0,-0.4480792683348084,-0.06262011641594656,-0.17297318960463529,-0.06436243006696682,-0.5352953080007111,-0.3612970923960802,-0.24140822671477524,-0.2434588253144077,-0.7705733678335195,-0.3778092978858595,0.0064303651466649115,-0.04757126389609197,-0.30055699315928414,-0.43085104876376196,-0.3139256794908995,-0.17325793947190699,-0.3697735319865484,-0.14374620427067955,-0.014139270609173847,-0.2045421517047369,-0.5955279771604125,-0.39651499903967297,-0.045844624277309606,-0.052926081445423115,-0.28075511592305186,-0.2567410053647009,-0.04225074052287058,-0.1842182598779098,-0.38323905892868393,-0.03158038598198094,0.06591949781807571,-0.2378396488922354,2
11.625,14.05,4.925,3.85,14.325,17.025,2.95,8.925,633.0,908.0,335.0,248.0,1000.0,1152.0,186.0,592.0,19.0,19.0,16.0,17.0,18.0,21.0,18.0,16.0,-0.1978400888656074,-0.3280788722625265,-0.23312543320426096,-0.11302798381842957,-0.6450166384926835,-0.5893024849383398,-0.48482559863789565,-0.4785108547549719,-0.606724415793123,-0.2639767050382115,-0.14300768132603517,-0.21724340374986406,-0.3735255142701749,-0.3423611732244064,-0.4133885772377016,-0.38025475840245876,-0.7350652438856102,-0.5890685150521348,-0.2559726160609372,-0.22044863543557403,-0.4487314990564915,-0.042226500402679966,0.3262244074609399,0.04737151177487091,-0.4827366997316943,0.0034789624099635643,0.06686684685318467,-0.043258302330021,-0.32909528782494973,-0.09845183239546489,-0.286148863333812,-0.3992355476381265,2
12.9,11.2,3.9,3.875,13.7,15.2,2.925,11.2,834.0,689.0,227.0,242.0,868.0,1015.0,183.0,799.0,19.0,17.0,17.0,14.0,16.0,21.0,15.0,21.0,-0.5298838040732333,-0.21044481700948148,-0.007781706335754451,-0.03269667598708882,-0.44578420781479744,-0.3192770613427437,-0.18304043095950268,-0.028081319441961423,-0.2098897511365977,-0.08266143406776029,-0.020665133773061277,-0.2803689164576469,-0.391873051283469,-0.4536762544732119,-0.2734178354834628,-0.3438681815634502,-0.7602615056103729,-0.6106825645733838,-0.3942482432949037,-0.3316976311774825,-0.49892918084873833,-0.32410560348005607,-0.12771253829162443,-0.3391859461292369,-0.4095635530233285,-0.013277867723229827,0.04937264479302525,-0.19895130583130657,-0.6379503012759461,-0.16010024803378736,0.03141115771794778,0.009669021706934379,2
12.9,18.875,5.225,5.025,14.55,18.2,4.05,14.25,899.0,1313.0,340.0,330.0,919.0,1334.0,282.0,933.0,22.0,21.0,16.0,19.0,20.0,19.0,20.0,20.0,-0.4866934808377285,-0.1505127008493906,-0.3414671291547763,-0.30327753058979906,-0.5639332526171238,-0.25424038927535114,-0.009988838729434246,-0.10216020918350258,-0.33237089224867,0.07195530132073283,0.10872102903983197,-0.09567271256280993,-0.5200160585811956,-0.23315972957220543,-0.3404884753901549,-0.21110458426060208,-0.8053902762186083,-0.6544612395134562,-0.4155532016454052,-0.29411281166280895,-0.9323265097369438,-0.7472864695179824,-0.5570491385992982,-0.38560752079811517,-0.5395584755680312,-0.21971990460579158,-0.06202057569372196,-0.08139097355140275,-0.4478132294839699,-0.1467218331921019,-0.17302004648446948,-0.183611611388928,2
13.225,20.3,6.5,5.6,18.775,16.025,4.125,14.15,846.0,1363.0,448.0,348.0,1108.0,959.0,278.0,957.0,19.0,15.0,20.0,11.0,16.0,19.0,18.0,21.0,-0.24029133305855646,-0.22545102702011213,-0.3557501883764485,-0.3482404866965241,-0.5625406967784113,-0.31499196928658785,-0.1475881835845295,-0.15207474759637868,-0.4837850181866488,-0.06258045816722983,-0.07899979964280868,-0.10236055394510207,-0.32207165670014165,-0.3837167480476837,-0.2524565347643392,-0.3336540406519953,-0.40877016121895676,-0.6453227189561995,-0.28266156955216765,-0.3596870213738982,-0.1460054640806196,-0.13530302200322705,-0.10997040229372992,0.15453295209411808,-0.5119451998020191,-0.3172153081215574,-0.09960579907086237,-0.05115258234214967,-0.5823050447318525,-0.28819643264538347,-0.15838225577770712,-0.33887179059697753,2
20.25,21.15,6.25,6.125,18.825,21.6,4.55,12.425,1271.0,1291.0,352.0,425.0,1359.0,1307.0,252.0,806.0,20.0,15.0,13.0,20.0,18.0,18.0,16.0,16.0,-0.18934480827980857,-0.30863534963669714,-0.04540431854050381,-0.33843530779526854,-0.2461812608866677,-0.44440267454073756,-0.3053645719742475,-0.04553522723607775,-0.15482390775810628,-0.5054047520833922,-0.17493629888709147,-0.10515887318025403,-0.7306913478027646,-0.6180055643360208,-0.5279082388747998,-0.25784203238753944,-0.5611399718529346,-0.3847184320003765,-0.4689004446855967,-0.3972095900477381,-0.33394952633508385,-0.3536086337427299,-0.19361478038529945,-0.20040853895127844,-0.30869356870835196,-0.5569568668066599,-0.2469767369230553,-0.44838081995985013,-0.5439264716687249,-0.2767282358373586,-0.08087405998234812,-0.304573200644807,2
18.125,23.45,5.725,4.925,16.125,18.5,4.175,9.8,1222.0,1557.0,348.0,327.0,1044.0,1107.0,222.0,633.0,23.0,14.0,18.0,19.0,18.0,19.0,13.0,16.0,-0.5867779652927072,-0.30041744181455504,-0.07582548677553384,-0.008795921118179634,-0.5635011950585291,-0.30388294661695503,-0.22400159460976185,-0.048194340915731944,-0.5451911226844153,-0.49887210934086035,-0.24362118007983002,-0.16745083263547214,-0.6092216461326201,-0.605056509075501,-0.28711949142959836,-0.2316712526372996,-0.274477274101331,-0.1533561906474451,-0.25753067655496414,-0.30448750617004966,-0.4371228285433283,-0.47469109060171855,-0.3389398286939213,-0.15544674141770043,-0.2506759671324804,-0.5563588693608156,-0.2530201846542364,-0.28442329030908503,-0.455183211221037,-0.3511029072107178,-0.14574105924297717,-0.22795425145899983,2
15.475,17.5,5.45,3.725,17.525,15.625,3.425,9.3,927.0,997.0,338.0,231.0,1178.0,898.0,195.0,574.0,19.0,18.0,18.0,12.0,22.0,15.0,15.0,14.0,-0.38065613189127184,-0.2861789363230566,-0.5109646246527383,-0.18796008126933908,-0.27452867358221916,-0.3148083708553533,-0.328267754737453,-0.2834984851489355,-0.5085771389113123,-0.48211741428930943,-0.19775840571819506,-0.14656666933752335,-0.19287742628852728,-0.522479390257637,-0.2390191409773361,-0.28802707066954947,-0.5607678196668693,-0.06536021122642649,-0.14671890297758008,-0.3461678610732503,-0.3065201907525947,-0.4732301525346678,-0.22049345802131454,-0.4992677396202605,-0.23184925738280293,-0.3907838972544896,-0.16401702600225987,-0.4032334438354005,-0.351222847726232,-0.29056631948991773,-0.3912980663993866,-0.13511316438363083,2
10.7,17.45,6.675,4.95,17.275,23.675,4.35,8.9,654.0,1045.0,460.0,333.0,1223.0,1712.0,290.0,570.0,20.0,14.0,23.0,17.0,22.0,23.0,21.0,18.0,-0.12764170594170038,0.019745573780711952,-0.15809539193623776,-0.3881284811027687,-0.10223879238053349,-0.1426815245170275,-0.2337986896477501,0.08185882989767623,-0.4008270200079754,-0.19396119132468276,-0.13876302281565173,-0.4116090375105477,-0.4542475107102596,-0.3029692515240819,-0.4813684251980528,-0.22719293895875353,-0.5762294586228622,-0.07691060545421015,-0.19888255939556293,-0.2423189981186413,-0.6664256213426485,-0.31112001476444784,-0.47815168037981237,-0.5168287086340003,-0.4682648816686559,-0.12873960986404956,-0.2933902167371584,-0.2923580632343636,-0.4704436658115614,-0.2198542654228151,-0.13640101153558135,-0.04447230044790752,2
13.475,18.8,6.35,5.175,16.125,25.925,3.45,9.275,918.0,922.0,424.0,329.0,950.0,1913.0,235.0,650.0,16.0,14.0,17.0,17.0,16.0,21.0,14.0,21.0,-0.43491993866714596,-0.19499755572238614,-0.13880573934378368,-0.2534441239774984,0.257926320909994,-0.6044693980902183,0.040801987372495976,-0.37233290477055425,-0.4503115425583991,-0.2570157337723002,-0.33639641348839633,-0.30697032314811973,-0.48159849735423116,-0.296275775939579,-0.2694255659045772,-0.07126974216562698,-0.46674644746445404,-0.2718524681164409,-0.2620572978338477,-0.1494755035154325,-0.742949232610609,-0.4399450676697155,-0.515771792999725,-0.4697469628691157,-0.43663804507542503,-0.17032547695123462,-0.42919773702653385,-0.2489428176501269,-0.8173286832710194,-0.643814423945493,-0.5421920378838495,-0.33895095626014154,2
15.4,15.1,6.1,4.95,13.775,25.05,3.6,10.55,1055.0,869.0,428.0,319.0,838.0,1799.0,241.0,692.0,19.0,15.0,16.0,15.0,20.0,19.0,12.0,18.0,-0.6058544785508857,-0.31691756209305416,-0.15979168090322804,-0.01890351689182078,0.026582498083562542,-0.056645638962421675,0.2513465032691642,-0.386408372429038,-0.7021574518752991,-0.10856712346980173,0.36243216367279074,0.2656991887305459,-0.6435560554838299,-0.5200466635646996,-0.4843866553830038,-0.34312562148500925,-0.5532674532155175,-0.37799455748024635,-0.3848794569950179,-0.2745306420622474,-0.7324018416247026,-0.5148731510530206,-0.4841079796564557,-0.5272968730410299,-0.340128750404518,0.24237703677142047,0.06663108228343434,-0.33391501677116897,-0.28122615238526016,0.006515107854222735,0.13241298224446718,-0.34536451037101346,2
13.35,18.95,6.375,5.8,15.65,21.8,2.975,11.5,910.0,1134.0,439.0,367.0,972.0,1501.0,204.0,819.0,19.0,19.0,18.0,15.0,18.0,20.0,16.0,23.0,-0.524779183633743,-0.17559198401837567,0.2751652424786733,0.10688917996058876,-0.18162792425800037,-0.2743642336555156,0.12696992635104087,-0.2119441470750268,-0.6747479502179646,-0.32869729697894423,-0.24762341255061107,-0.22169629820708897,-0.4557155653328377,-0.19822448407220852,-0.22691065409244607,-0.3079154456961707,-0.565365691246296,-0.35778920889838006,-0.09231562616368946,-0.10286478646186004,-0.6587505815306608,-0.19181598333340058,0.16375324680241096,-0.018667332457588223,-0.5295090873660148,-0.17272921988810078,-0.15877251721607982,-0.1956184999277935,-0.6102590150432471,-0.0972148519907292,0.0714159795302971,-0.16062530608888115,2
11.925,14.85,4.125,3.675,15.35,19.175,4.15,7.075,756.0,801.0,272.0,233.0,920.0,1119.0,253.0,461.0,18.0,15.0,16.0,16.0,16.0,17.0,17.0,15.0,-0.5075996659836911,-0.27032727488770864,-0.24188814518725105,-0.10174849575000769,-0.1274590972205503,-0.12474717917259708,-0.10862038118366837,-0.10214545784807122,-0.318009433548653,-0.15837041543312091,-0.08555623939534947,-0.041774564424274296,-0.3237324044115041,-0.23681478861421057,-0.23189770047543318,-0.08143212452825145,-0.33904275716663224,-0.11322013616920942,-0.21452084125215887,-0.337451172833828,-0.4314928228770828,-0.3701393763889061,-0.4403626306440251,-0.23844774224280763,-0.537932260246986,-0.318514236570752,-0.3730146945114585,-0.35226122003423543,-0.4458897735181066,-0.3031366399397097,-0.019976646063052803,-0.10010493006410173,2
9.8,16.425,4.725,3.9,12.9,19.0,4.7,7.75,642.0,1066.0,308.0,231.0,856.0,1159.0,305.0,534.0,20.0,17.0,17.0,19.0,18.0,20.0,15.0,15.0,-0.32503978072525636,-0.0038456839000362473,-0.19160398705029927,-0.26254355150261033,-0.30356445065563825,-0.0950119209682934,-0.05979779221763206,-0.05854824531596387,-0.6774164666101485,-0.2917574587788438,0.1297301055315694,0.08228601716156617,-0.299561686165847,-0.29708739748316826,-0.1737727364678649,0.06342003837736944,-0.5147832474286206,-0.1985478779614994,-0.07826054907481915,-0.16662343039344374,-0.6045388019908373,-0.4933275068420606,-0.521702145967286,-0.35884773634735445,-0.721111548635111,-0.522849951114942,-0.6046798621690626,-0.5201994756735557,-0.38220972370041073,0.08279558960477289,-0.10506881814678037,-0.31379172854192267,2
11.675,17.2,4.0,5.1,16.05,19.15,3.85,11.475,770.0,1152.0,244.0,272.0,1072.0,1236.0,205.0,776.0,18.0,20.0,12.0,14.0,21.0,15.0,12.0,18.0,-0.18871541712725962,-0.07335106643105377,-0.1281063489663645,-0.10424773704625424,-0.687346606029917,-0.3524991291376409,-0.5601800508906133,-0.41066901141301837,-0.3504881833703815,0.12457309967378481,0.1109895596711942,-0.2876873638119315,-0.07425386225306305,0.016627806823943176,-0.11679501860044304,-0.2902518680154174,-0.5518009224648993,-0.47902788561335463,-0.13426894649651522,-0.22144515324259606,-0.29429041615011187,-0.2141457374405935,-0.22048577973998143,-0.33665856163443963,-0.10203652097869209,-0.39884848793122896,-0.2159066818050286,-0.2965631581953642,-0.7111629327128381,-0.3119167628530569,-0.03966886071817143,-0.1351388704943977,2
9.575,15.975,3.75,4.75,13.0,19.4,4.25,10.225,604.0,1086.0,189.0,277.0,911.0,1157.0,269.0,691.0,18.0,20.0,11.0,16.0,19.0,20.0,14.0,19.0,-0.34252727453575577,-0.31297640959494855,-0.2522002207189144,-0.20718168631769956,-0.505183309460503,-0.2710997992487141,-0.33257372654354495,-0.3527516932211097,-0.16736190842285456,0.15131340835988877,0.08757341760593874,-0.11286782036380387,0.040756124424247746,-0.04866740917619265,0.10203110680709493,-0.45066234973624614,-0.8040737052628997,-0.4875433992367026,-0.546020140886577,-0.232582469551745,-0.25793396834033294,-0.32704248918257467,-0.27579929028728306,-0.17420262803973388,-0.4031455280982262,-0.4545131548045563,-0.33435764436034315,-0.3536826557163791,-0.690858549732233,-0.22197784370060838,-0.19705868177582703,-0.22059399948276434,2
9.525,15.725,4.0,5.175,10.15,16.525,3.875,11.6,660.0,995.0,186.0,358.0,621.0,1059.0,234.0,742.0,19.0,17.0,9.0,20.0,17.0,15.0,14.0,19.0,-0.5451164702398904,-0.311584043928444,0.12105059373794448,-0.030932700151707626,-0.3987254631426081,-0.14272607587770972,-0.14026745540932187,-0.4358752753377132,0.05923173231436449,0.03187646099492751,-0.0740805989977501,-0.09756240764695728,-0.5577576238789608,-0.11969989652733261,0.16019082279159505,-0.1232370554553164,-0.41110459433628677,-0.5076270747838111,-0.2707740218169704,-0.3041688969796459,-0.5104448578056062,-0.05150495001898071,-0.26362451024702316,-0.5122802880623811,-0.45715622750136614,-0.22787465158151307,-0.46040335677081307,-0.5445805646142067,-0.44514096554057175,-0.3983653923243349,-0.26677492771790257,-0.32133185503510364,2
9.0,16.225,4.375,4.925,14.25,17.25,3.275,9.425,608.0,981.0,245.0,323.0,963.0,1113.0,210.0,626.0,17.0,17.0,14.0,14.0,20.0,19.0,18.0,18.0,-0.6103786945356522,-0.5425245139731207,-0.16560617074939013,-0.14031141932398722,-0.4964423433786849,-0.3075777850231686,-0.16864289085543352,-0.18229311657505576,-0.3772743082208326,-0.3044851895576916,-0.1808980614118202,-0.09813597987334435,-0.47099033396215473,-0.34381136702753223,-0.1415351943101591,-0.28651891213938724,-0.5658394939955288,-0.19718399029847888,-0.2189563507962553,-0.31617876395422073,-0.4960127189448785,-0.12240678292648943,-0.06472999533287899,0.05657665841929681,-0.26237651684152524,0.08860055384277353,-0.1262010033914539,-0.2121044980557493,-0.3308835310503573,-0.12345526174891429,-0.2894784263251756,-0.23366829729917535,2
10.325,14.9,5.35,5.725,15.925,20.2,4.2,12.775,676.0,937.0,364.0,337.0,1072.0,1282.0,272.0,792.0,13.0,15.0,19.0,11.0,18.0,18.0,20.0,19.0,-0.2072007114864057,-0.010570587035880047,0.08396144242118357,-0.0727686019580461,-0.21798597799252956,0.07408098807295968,-0.12996329451271355,-0.12112011484783672,-0.17151407601307794,-0.01441872638433904,0.32938386565742994,-0.044705212841899426,-0.1960493612841886,-0.07469277129383464,-0.05263064284282322,-0.31650661981734457,-0.501591414445778,-0.09037373211643186,-0.030806469016146535,-0.2074981036576608,-0.30932858187867374,0.08926835437201554,0.09752505008500754,-0.07756670771414026,-0.23018638229987026,-0.10866489146488234,0.08889203956275715,-0.18783372903460205,-0.24279954685144706,-0.15434553769388878,-0.18395162147219218,-0.2168739529174204,2
16.6,15.525,4.1,4.725,9.65,20.5,3.875,14.3,1166.0,890.0,250.0,261.0,606.0,1338.0,266.0,940.0,22.0,16.0,17.0,15.0,18.0,16.0,18.0,19.0,-0.656402424995309,-0.23074754268023237,-0.3474561407984755,-0.23735560763262387,-0.1732798607842132,-0.451823628592339,-0.23114082717450474,-0.4476335416149456,-0.3888074649626911,-0.2221186327988366,-0.09155406364476251,-0.15200908946673555,-0.18272560550456365,-0.11806095129931223,-0.3345640490346474,-0.08574521030027932,-0.29045018640572473,-0.10501295879983531,-0.4413792464988675,-0.3321663088812631,-0.31435578566027533,-0.10521315767209062,-0.12900831613282518,-0.1650527299892081,-0.24063482861876173,-0.44147891789555926,0.03788932813044819,-0.34916673229026884,-0.6988217492692889,-0.5297000270490927,-0.4805946053730334,-0.4666594865389891,2
11.675,16.075,3.45,3.675,13.95,20.175,3.825,8.875,777.0,905.0,213.0,203.0,798.0,1333.0,235.0,574.0,16.0,17.0,14.0,11.0,13.0,17.0,13.0,12.0,-0.33413561577578305,-0.05697909486275267,-0.12676104394727297,-0.13252200052840635,-0.3998537147055866,-0.46877967946145027,-0.5432328144174756,-0.22364748489886357,-0.23063382834919888,-0.10747433803761682,-0.3755683281644544,-0.024186792743951822,-0.10346283271089282,-0.17552894703452707,-0.20103261248278068,-0.14227499625810708,-0.18232961241363593,-0.26649216868970393,-0.2425528198756739,-0.12482779408158987,-0.4140000127467623,-0.2872988026018679,-0.3729214211853412,-0.3270283215255339,-0.3477048057543732,-0.322412052710263,-0.07767646076955746,-0.28660237678986283,-0.4939938917158675,-0.18783856029286133,-0.22305656805096,-0.5247933795884446,2
11.15,15.95,5.525,3.125,18.0,19.475,3.4,8.825,719.0,1037.0,306.0,200.0,1185.0,1179.0,210.0,631.0,18.0,16.0,14.0,13.0,19.0,14.0,13.0,22.0,-0.27225023021044314,-0.05800166685602819,-0.36042527069513347,-0.16530823858059393,-0.48131442546557324,-0.2843060792885816,-0.5325439671664108,-0.19866466046116762,-0.20268981496524197,-0.3986072824820412,-0.14094389596221432,-0.390478881964885,-0.3069738651958602,0.060622590710576664,-0.4240408141893482,-0.09644238752078986,-0.5170080440116166,-0.19866516693743533,-0.4435215273480181,-0.44713553455361593,-0.3891372030577116,-0.2699991852592079,-0.5491605070207141,-0.29527373428445214,-0.5340652460484061,-0.5014051232753141,-0.27839296315677453,-0.2623023927930964,-0.687446113093307,-0.4583685428277935,-0.37307599302965344,-0.2129850083270274,2
6.825,20.425,5.8,4.375,18.0,17.45,3.05,10.325,471.0,1349.0,359.0,306.0,1210.0,1022.0,205.0,671.0,13.0,20.0,18.0,20.0,19.0,18.0,18.0,20.0,-0.4331451714045335,-0.10467192972185953,0.0752014284549526,0.1880508526737285,-0.6713696353836205,-0.417129591284813,-0.4371176028459293,-0.13749892435138078,-0.5864016476450222,-0.14173805651772,-0.005949681152710265,-0.09137417145934684,-0.5774383505800087,-0.35279552343737375,-0.087586904465456,-0.17074986187351213,-0.6020280167780547,-0.5520135591225428,-0.4051350324318233,-0.34076242940847096,-0.2948014512219639,-0.29984670655921103,-0.28881602780599125,-0.15589204130209378,-0.5489101367773422,-0.25802072536159604,-0.03416457166194888,-0.07376733389117834,-0.5918374974853751,-0.4683784723731801,-0.14775324068765835,-0.14735309269437732,2
9.25,14.25,5.325,5.15,12.35,18.675,3.675,9.975,506.0,883.0,324.0,280.0,696.0,1183.0,253.0,606.0,12.0,18.0,16.0,11.0,16.0,17.0,20.0,16.0,-0.13542266538954556,-0.29905883511793435,-0.23357814904016969,-0.18144438580538105,-0.4525431471842239,-0.3862744527500464,-0.3690425160174637,-0.21239268971206957,-0.44485098574335696,-0.35144190255710184,-0.33479226429606496,0.056315044725586176,-0.1655944591372288,-0.1423326240725985,-0.1399025169821393,-0.0962941248484533,-0.2733894926571901,-0.39509302735736346,-0.0772998359164483,-0.26494112846531137,-0.12277497154734829,-0.4758199894803566,0.05432085499064965,-0.30036259523848374,-0.729839843228961,-0.34361392996369267,-0.08043093476833466,-0.04666226088157644,-0.35374458302200684,-0.062219833038384596,-0.4135456147468921,-0.3032503022560803,2
11.5,12.175,4.9,5.0,14.775,24.05,3.875,12.75,677.0,774.0,291.0,297.0,1022.0,1741.0,270.0,716.0,17.0,14.0,16.0,12.0,23.0,24.0,20.0,15.0,-0.27037057603115056,-0.009959031321059216,-0.2218861916669292,-0.019396398462086614,-0.3025521298939053,-0.24995939935953476,-0.5230766320766047,-0.20576828092294608,-0.2585169104237978,-0.2265061321616578,-0.13693530185892577,0.029758107566672163,-0.21794100079397713,-0.179498619372845,-0.1371237825433116,-0.4661661760152353,-0.6949364341482124,-0.30518969183923683,-0.30374051307379063,-0.23164598783295468,-0.7856733279150989,-0.3973702878758857,-0.37397699352514613,-0.2272578329460371,-0.3911108440528698,0.055175940925277,-0.21786808939122446,-0.3994253705168039,-0.25208939600988484,-0.16837860072227645,-0.2987930983685933,-0.3647245552249911,2
13.575,13.425,3.8,4.275,11.175,17.025,3.375,10.225,909.0,906.0,229.0,246.0,728.0,1076.0,219.0,560.0,18.0,20.0,15.0,14.0,17.0,17.0,13.0,14.0,-0.514978666616684,-0.22223217483720115,-0.04189291092047933,-0.021929723879238923,-0.6028331685572954,-0.3473494647382266,-0.27696038949019397,-0.3287208748521358,-0.35342855483319996,-0.43642421588118546,-0.38167870257827047,-0.13345991226049533,-0.5099598765563061,-0.3613112276227196,-0.5340262226529379,-0.33776935949537884,-0.46321525148926024,-0.12451806921630988,-0.07688321012078761,-0.2635178362464859,-0.380880299783474,-0.18843381735710946,-0.3085906498978743,-0.3123992343087651,-0.5477224067519247,-0.3570886597592239,-0.27899713423494227,-0.22193349540195378,0.020143783995607754,-0.24827917224184287,-0.07429463007013647,-0.2909886739194632,2
10.65,12.3,3.975,4.35,12.325,19.475,3.475,7.85,696.0,729.0,247.0,232.0,699.0,1180.0,208.0,436.0,17.0,16.0,17.0,15.0,16.0,13.0,13.0,18.0,-0.24478035152648328,0.07204341988521024,0.06153565583479142,-0.18333049615477137,-0.22951701718684003,-0.035490104926586316,0.033997330187525245,-0.04230051924932752,-0.4717145059473334,-0.2660624709562337,-0.2519823579514131,-0.3862919280606401,-0.4059389189604508,-0.25886122711985515,-0.6397322764517253,-0.34688033273791713,-0.30296051207385327,-0.2742788634779798,-0.2686895204323829,-0.041547055613744284,-0.45730586669412393,-0.3674162400261907,-0.4400383313115534,-0.3494788236503628,-0.6356412478217368,-0.810113623195401,-0.5586656465718146,-0.422592949724226,-0.12100972435182081,-0.008445859476735313,-0.2925219442795828,-0.20643948706032628,2
11.675,13.875,3.775,3.375,13.9,20.725,3.75,7.2,769.0,906.0,217.0,189.0,923.0,1340.0,231.0,485.0,18.0,16.0,15.0,16.0,19.0,20.0,14.0,15.0,-0.5436342951713533,-0.5179964882448399,-0.23674892916481513,-0.35366936801810483,-0.7119980185628146,-0.5407710058535902,-0.6523703672015556,-0.21257639962590244,-0.22147783819550454,-0.12514615218285557,-0.35781046817558454,-0.2148096315449579,-0.2123705534480098,-0.3604444900351509,-0.22506591988051078,-0.03811151238795897,-0.7572814259465839,-0.6424179701657116,-0.3235440959344064,-0.1552394629638394,-0.36681569230860706,-0.29060361953036656,-0.20039311241544455,-0.253790296710247,-0.2546996653781234,-0.04222351782163415,-0.14432784176417882,-0.34479064184499114,-0.4320431417245503,-0.17720467975363774,-0.14351063034636077,-0.195701125039161,2
9.55,13.575,4.0,4.3,12.775,19.5,3.95,7.825,622.0,793.0,242.0,190.0,825.0,1282.0,238.0,525.0,17.0,18.0,16.0,12.0,16.0,18.0,15.0,19.0,-0.5373487280839694,-0.3445199860688296,-0.043165411654095855,-0.13962326215998505,-0.2580029908712544,-0.35157079969592364,-0.2749082335098668,-0.14478277379190857,-0.3676232241878255,-0.13906646948281867,-0.24237973626172635,-0.23290907297897406,0.0418825700091415,-0.29136706719831107,-0.23117114403712594,-0.4450816180381425,-0.49781606229474884,-0.4343315083548595,-0.24607702789694014,-0.29023185650444366,-0.6392245000586235,-0.2079936227866525,-0.2559711332866634,-0.2913291574292566,-0.4028669908731036,-0.3777468173758849,-0.3859518332743484,-0.25942663584060194,-0.4251892012028356,-0.16145795228424037,-0.46288144320150354,-0.22157231539885922,2
11.6,13.875,4.925,4.375,10.75,21.075,4.5,8.55,682.0,704.0,259.0,223.0,688.0,1409.0,253.0,533.0,15.0,14.0,14.0,13.0,16.0,20.0,19.0,16.0,-0.09948047786276726,-0.15423870420682706,-0.03514630312136561,-0.3032439533924068,-0.08564689794914224,-0.2712812816704696,-0.11767378573322737,-0.1359350305041104,-0.1260357428693408,-0.393196312001316,-0.12789723812791462,-0.2019872149216565,-0.07313257165817731,-0.21605661904694426,-0.14885156515375533,-0.21467332079297402,-0.3718063434046432,-0.1774998828883681,-0.21958892310520725,-0.15703292799143342,-0.489542656435268,-0.0610204368544419,-0.16557245983266822,-0.24718538531757475,-0.24896119632972377,-0.44405307392903787,-0.15997397686626919,-0.46951378104855657,-0.1284115135101631,-0.0841189280982843,-0.11925322030084973,-0.28757763147208526,2
13.85,14.7,5.95,3.85,8.925,21.725,3.2,7.85,903.0,832.0,431.0,249.0,589.0,1331.0,191.0,483.0,21.0,13.0,21.0,18.0,19.0,15.0,14.0,16.0,-0.7774024968277822,-0.46848542848822594,-0.43927082656475164,-0.43278598726416295,-0.2381467258011764,-0.4851960831698977,-0.2456339857793175,-0.5207466518316839,-0.564921738700257,-0.016350995406227677,-0.1563470139921545,-0.3313067943735821,-0.3376222057550194,0.11348385317867256,0.057098526899876385,-0.006438387831178274,-0.47478070222768676,0.06713512464335444,0.01585218349295801,-0.11734394171782385,-0.32607832487085886,-0.2904185617406435,0.16070692231278647,-0.2385088143804176,-0.4537311663439576,-0.5295482413795084,-0.34494205325586275,-0.4014708324231339,-0.37254839361255043,-0.2652732075937695,-0.2811130189431434,-0.1967779363173327,2
12.175,17.05,4.675,3.85,9.125,15.65,2.6,8.525,796.0,1096.0,273.0,222.0,552.0,811.0,147.0,492.0,18.0,18.0,17.0,9.0,19.0,17.0,12.0,16.0,-0.5436812218886052,-0.00801900317550309,0.19355482831020765,0.15006345462011295,-0.46554592402518047,-0.24916270189346632,-0.07855217698990113,-0.044681343923461056,-0.34201240253119075,-0.2557128989286095,-0.4938655163308742,-0.1658062350972801,-0.10787670526892164,-0.10566245611934239,-0.27958222040353786,-0.28948603957265023,-0.2517121673128486,-0.2196923409802585,-0.05475308572967483,0.05197038459746921,-0.030885851235297815,-0.2807167189801793,0.028665852857555192,-0.13465934741473756,-0.056817024290862855,-0.07589758043305314,0.011082474773837498,0.08113074516943113,-0.4084610815918123,-0.4984281428106288,-0.273769317645421,-0.19105527935171948,2
12.4,17.35,6.125,4.525,12.975,16.2,4.5,8.625,811.0,1093.0,412.0,226.0,910.0,1122.0,268.0,512.0,15.0,20.0,19.0,16.0,19.0,18.0,20.0,17.0,-0.3830624143897496,-0.13813378505739576,-0.4805564938438375,-0.11998971305241486,-0.5305440292891904,-0.08435193415753593,0.28441213910380536,0.0024744028015687976,-0.48820362853054033,-0.3797260221584572,-0.14422092287597504,-0.3092399322537985,-0.08563775226785714,-0.15711342454237887,0.018611599916838358,-0.4135076032693463,-0.6803319204735931,-0.156928773827369,-0.09406287668457249,-0.1329405655049108,-0.4664083645574108,-0.09616686751998006,-0.4184751627957662,-0.38699913305661915,-0.4245285220551358,-0.07552015469992181,-0.4388597677154033,-0.6170885811470043,-0.11832522247780314,-0.07990860469590151,-0.27413177703546815,-0.06647202953383127,2
12.575,17.3,4.5,3.275,12.9,14.375,3.425,10.15,825.0,1053.0,311.0,199.0,885.0,1001.0,210.0,665.0,16.0,19.0,17.0,16.0,22.0,25.0,13.0,18.0,-0.3574128361923035,-0.09695553038400709,-0.244118821314476,-0.10343588250218899,-0.2951893572350695,-0.2932244831164888,0.10612345847464028,-0.2718918581847155,-0.24133881187795386,-0.23241346403301552,0.14547366009190899,-0.461765949321542,-0.23039399472633124,-0.11677097226778665,-0.04967855848599097,-0.2214560023801531,-0.7020625092458254,-0.3506771476957972,-0.2868217011091599,-0.3133564577716694,-0.5159490828667823,-0.14454787670883645,-0.12750332110880624,0.03702186798273964,-0.5910556576840558,-0.4974762917265092,-0.545327220529508,-0.5011581997744684,-0.597400949035721,-0.4286342220513485,-0.029621964433038755,-0.09422445413050698,2
9.575,10.35,3.925,3.1,11.4,15.3,2.125,11.0,629.0,657.0,229.0,179.0,816.0,980.0,122.0,758.0,18.0,15.0,15.0,8.0,22.0,16.0,11.0,21.0,-0.500491812275173,-0.2215973698683216,-0.18590580998208714,-0.003853517264541591,-0.1466654126754482,-0.4353302274074563,-0.041886838620008804,-0.27704852200626057,-0.19691066376321478,-0.3754465166647737,-0.015144102496403336,-0.23839053526568,-0.31608553232236386,-0.2759496511583713,-0.2611737731666925,-0.326182645603786,-0.7381539999112879,-0.32544610185269396,0.07751039146332575,-0.00417916209030469,-0.1019253947860187,-0.4199571359059303,-0.015905655530420858,-0.25533860013743087,-0.2789416034282138,-0.2462993355379834,-0.41588456319077116,-0.33294401997822093,-0.6026904535175813,-0.2638281051554632,-0.1631130531369916,-0.23689810084589683,2
10.75,12.425,4.3,4.1,11.35,13.875,2.95,9.725,727.0,827.0,243.0,212.0,773.0,773.0,158.0,632.0,20.0,19.0,12.0,10.0,19.0,13.0,13.0,20.0,-0.3030691542005827,0.08034755521147358,-0.24848659002762669,-0.3121417762417391,-0.3958567182946658,-0.2692771251231103,-0.1398603230156467,-0.387869263944975,-0.1051255773184518,-0.292754738019816,0.044247906007620165,-0.2716394184904101,-0.12136633109398802,-0.18890590306567856,-0.28009161564043994,-0.25741246084999586,-0.7844746458589125,-0.5096088900525098,-0.5933811683952189,-0.39876336281521846,-0.07647176605819385,-0.27268805877242447,-0.29271309941772244,-0.20264562937875355,-0.22479874383479678,-0.3178146332561378,-0.2838912671390231,-0.31583582779179326,-0.3276144514153412,-0.24194875781225184,0.011640021367109113,-0.1595997910991717,2
11.3,13.525,4.4,3.475,13.875,12.8,3.55,10.825,660.0,843.0,276.0,196.0,930.0,739.0,189.0,779.0,16.0,16.0,16.0,14.0,19.0,17.0,14.0,20.0,-0.012448595521706308,-0.0676773155851886,-0.044168080479511936,-0.11035365205740953,-0.26903092343199275,-0.16579850090521683,-0.33803208230556203,-0.2710214865901753,-0.2961290044787506,0.19403119042217581,-0.06392378345688032,-0.12068988546823958,-0.19486142512076252,0.05000639692541646,-0.37102486672743856,-0.26198521698036764,-0.5963205796521625,-0.36039581124128905,-0.30494045245304274,-0.39868146664962145,-0.19700160792655702,-0.17756919272299923,0.007448684845097699,-0.1839781551315488,-0.17350778066316846,-0.1576909848005474,-0.32190735827348127,-0.34437497346059265,-0.5893691641043127,-0.006837326996658566,0.026339420575711148,-0.23173142365629956,2
13.95,12.575,3.95,3.425,15.025,19.25,3.65,11.425,947.0,773.0,283.0,182.0,967.0,1090.0,211.0,758.0,20.0,20.0,20.0,10.0,16.0,18.0,17.0,19.0,-0.5979869243584779,-0.3505081531317183,-0.24267676864618526,-0.23981476881797692,-0.11320629330940522,-0.1275289303001258,-0.16922959246314379,-0.2935659667641216,-0.44513834178255085,-0.11919179594139745,-0.10622366677495779,-0.15339719267857102,-0.2032230579784542,-0.08107627175040255,-0.386785112033266,-0.15305515941746745,-0.5100236731807856,-0.43255921464201597,-0.12304588564941076,-0.1839339967141462,-0.2470802411595882,-0.4711112358228659,-0.1316233694414125,-0.16786809751483842,-0.3515891222946994,-0.18086178057198882,-0.40887046531725607,-0.25322877646730596,-0.6061690405554294,-0.34354069156637923,-0.3922443799994972,-0.2059868557058375,2
10.725,8.925,4.0,3.075,12.125,17.575,3.725,8.575,742.0,531.0,259.0,156.0,680.0,976.0,193.0,525.0,21.0,16.0,15.0,8.0,16.0,14.0,9.0,15.0,-0.4081257195473205,0.10777665716684541,0.14082327573920758,-0.10884953353847426,-0.13177275436839303,-0.2552757810561605,0.054358039853045666,-0.05033589856708021,-0.40320219369409027,-0.4678252927854637,-0.18183433019313755,-0.16806584099023797,-0.10017619758806436,-0.34810461682477484,-0.1108045992863721,-0.19063376330030996,-0.10698062557694385,-0.21874284656149715,-0.1182116503050313,-0.41521106047870665,-0.16932998806323377,-0.24636054473090624,-0.348015616432025,-0.14099989871838406,-0.2416306737229394,-0.31383278612601784,-0.44784056073935957,-0.3660692146907612,-0.16208152592966918,0.15255152722692952,-0.1383239135170202,0.16371204880479873,2
14.175,14.7,4.6,4.05,13.825,23.175,4.625,11.125,995.0,930.0,279.0,266.0,785.0,1343.0,240.0,720.0,24.0,14.0,17.0,20.0,19.0,15.0,15.0,22.0,-0.40425695185203653,0.12688443839482944,0.23706602983877623,-0.0669179578608641,-0.2157090773098194,-0.41178341054507317,-0.1951665649964532,-0.36651640962931703,-0.29682158836926253,-0.2355779842790265,-0.1048463917083308,-0.3852945008102152,-0.420457478506535,-0.048627996146292415,-0.03485062222967272,-0.281752082317928,-0.155443906696002,-0.24871148600094425,-0.18082434434553424,-0.24341663233905136,-0.30237128360274657,-0.2550908670085767,-0.433071105481194,-0.241100288457005,-0.38610446540305826,-0.3130952405199993,-0.41990257061895925,-0.36048125333367703,-0.36696024478077094,-0.0776047949510534,0.05667428441723959,0.016340206155208484,2
18.125,18.575,6.2,4.25,15.575,22.95,3.7,11.95,1279.0,1065.0,383.0,258.0,1020.0,1573.0,241.0,805.0,19.0,16.0,19.0,18.0,18.0,18.0,16.0,21.0,-0.6775378378279542,-0.3158536411949825,-0.4464222692192118,-0.2752884599638785,-0.016853504638810128,-0.08733084394314006,-0.08345419759134827,-0.02842688599429238,-0.4441829895454541,-0.16867247828001844,-0.3638268880435622,-0.19258471468315927,-0.21971352018413903,-0.23820764229140967,-0.23261709377509746,-0.18476846957419388,-0.3133723521617929,-0.31472171448042235,-0.12407919071804634,-0.1734999919422872,-0.5288796803788708,-0.32003017569339026,-0.03918815539443466,-0.16219453617915566,-0.31980936070595767,-0.2531871099735902,0.08887668211238377,-0.3000376750124835,-0.5090378432869993,-0.2041093424319881,-0.14390530944395297,-0.16641976924338303,2
16.175,14.625,4.575,4.75,15.3,21.325,3.95,10.125,1140.0,856.0,266.0,306.0,971.0,1396.0,265.0,653.0,18.0,16.0,13.0,16.0,15.0,19.0,15.0,17.0,-0.8451511534637578,-0.5374015265292857,-0.27193758845108135,-0.033138685758613194,-0.41084554667467066,-0.21238764157496753,-0.09707984632803654,0.04093853476775563,-0.2829288285828034,-0.46937875484364855,-0.28178876047094936,-0.2471602574368378,-0.39436743532150315,-0.21666111605100113,-0.4141932890492882,-0.4667971862506259,-0.27569497294732026,-0.20873203833445833,-0.22754044807343107,-0.18335312393475206,-0.43118227038592233,-0.4685383518011099,-0.1517423395383106,-0.4515164340608822,-0.45047671993022537,0.06915951992305353,0.22448453443564773,-0.17675740674142548,-0.47832576290019546,-0.2882481014099583,-0.038403192434884784,-0.31540207915410867,2
14.925,14.825,4.775,4.95,17.875,17.875,3.775,8.75,1007.0,946.0,322.0,337.0,1178.0,1170.0,254.0,511.0,17.0,16.0,19.0,20.0,16.0,16.0,15.0,15.0,-0.5950379837087117,-0.379751306357709,-0.3046543951221825,-0.07457428889661011,-0.4583011896542543,-0.31853688878854164,-0.29105224787634565,-0.25398841353089,-0.47147561834445406,-0.14051460880321368,-0.1805234193364041,-0.37780954092433644,-0.6979293904368455,-0.5001179410788371,-0.5593969963627604,-0.4207804501878736,-0.3438669753174765,-0.0342533757177716,0.03420040403069029,-0.012272558742222951,-0.4584776335041759,-0.5188693626684677,-0.3827296232729826,-0.21446381076037854,-0.4587709054400283,-0.21086154096148238,-0.1802941228889566,-0.38201234900693737,-0.2325045736514474,0.003387769702738046,-0.04832904588524195,-0.2810313520886686,2
15.825,14.0,4.075,4.825,12.525,19.375,4.225,12.35,1058.0,887.0,240.0,316.0,847.0,1376.0,251.0,768.0,20.0,17.0,16.0,19.0,22.0,20.0,20.0,17.0,-0.5346742651574036,-0.05652105069218097,-0.11725455190372036,-0.2439836063468904,-0.17220555527822837,-0.16822864598593656,0.09738051478446154,-0.3989182221258543,-0.14236411361985638,-0.24840904063359434,0.02559220938016833,-0.026821627446299224,-0.5517691800545983,-0.5393345832280834,-0.5024517890151726,-0.44887342491809584,-0.35523195444483513,-0.15203203631556195,0.07869448758423421,-0.08058139317356959,-0.5983558640333466,-0.5875013455346418,-0.3889509084200136,-0.4280264571806632,-0.3540398045905833,-0.26441352240074895,-0.16003389326944373,-0.49171545694001284,-0.18444724895638745,-0.12118777262085462,-0.13144909120687387,-0.129749202021104,2
16.225,14.675,4.375,3.975,10.075,21.275,4.2,13.025,1020.0,947.0,270.0,249.0,627.0,1388.0,280.0,783.0,21.0,21.0,15.0,13.0,20.0,16.0,19.0,19.0,-0.44992260897628544,-0.12201889514316613,-0.09100873745613655,-0.08082508704983286,-0.5014899055169529,-0.25816371887613665,-0.19588986677698478,-0.1497756646070345,-0.43672220708512305,-0.5597770972150895,-0.1781991303517007,-0.32622121876463006,-0.4522254176834248,-0.3987614861045442,-0.42148170096317805,-0.0636905539550436,-0.30530274107997823,-0.3421735845837198,-0.05855869824772493,-0.06797466856068628,-0.4762832155835542,-0.33475662191272265,0.06659786207413583,-0.16959749374305175,-0.4694794312182215,-0.5441785545030847,-0.014029546770618522,-0.1945048374224108,-0.20236184850691943,-0.06847150915494203,-0.20301476340742786,-0.09434994169085627,2
11.725,14.85,5.125,3.825,15.575,18.475,3.85,12.0,662.0,932.0,330.0,240.0,1094.0,1204.0,231.0,775.0,13.0,17.0,17.0,19.0,19.0,22.0,12.0,17.0,-0.17192753340786315,-0.20761188218649257,-0.0694488427961471,-0.029583915525804964,-0.1046045008100695,-0.22285761997377804,0.3165300678766978,-0.08077610441856514,-0.27250228680374394,-0.23491747103885258,0.15036718610065827,-0.08098400637386483,-0.40035874239942765,-0.16510737357398547,-0.3019292224651013,-0.1292983746031714,-0.6721880383096626,-0.09460789957070855,0.0019813122725666626,-0.21245194475398796,-0.5714370483969266,-0.2991172381386163,0.18412849205651224,-0.049296567990518896,-0.21399575652488861,-0.16649625247459826,0.1468863375205135,0.05235443344520977,-0.48739707451964875,-0.2835915975620074,0.07690721284549963,-0.07963305259937732,2
9.925,12.225,4.55,3.45,10.3,16.075,2.575,9.275,615.0,734.0,286.0,211.0,607.0,1003.0,138.0,581.0,19.0,12.0,12.0,18.0,19.0,19.0,15.0,19.0,-0.26510637309962193,-0.016219328198929416,-0.09995914559340617,-0.34392226408298354,-0.25260526896561053,-0.18970264738602738,-0.17878665007513145,-0.24561273258577643,-0.37914246389724987,-0.3009750136887152,-0.29256126409227573,-0.5187687530215681,-0.2745727055289193,-0.2114181685262907,-0.04043718061271541,-0.15190827162216766,-0.1220685717646085,-0.20959416591948118,0.057810579825681385,-0.3428028811400072,-0.4233337057877726,-0.1533408786149313,-0.034607070051610726,-0.16560477566103576,-0.1510418336342206,0.06994240179924908,0.058416065852139556,-0.002491644147145821,-0.3628184212609399,-0.06802377047995958,0.02590950236149155,-0.2031126146745792,2
13.65,14.925,4.75,4.35,15.7,21.975,3.2,13.025,891.0,938.0,244.0,215.0,997.0,1337.0,188.0,842.0,20.0,19.0,12.0,12.0,18.0,18.0,14.0,20.0,-0.714761351505036,-0.4480873710946095,-0.42951920341005134,-0.22932928468262867,-0.3896525001979326,0.02376523425134753,-0.02070995071788565,-0.11696009610143782,-0.09624879293493967,-0.21945654583210422,-0.09655318794065725,-0.15878853383540326,0.22233103643787072,-0.2685039160768419,0.05735343606135417,-0.40105688464811273,-0.6938515047207168,-0.798206873005799,-0.44681201294544914,-0.3739771581321458,-0.6053664479788468,-0.5532242282458217,-0.24141149109979046,-0.2497183245262049,-0.5546126479970017,-0.2547587568349372,-0.3055819398804971,-0.1628492304006157,-0.5614631018033654,-0.23828800216186743,-0.2873370042841525,-0.4138810785107549,2
13.225,11.85,4.35,4.05,12.3,19.1,3.925,10.025,820.0,643.0,237.0,213.0,709.0,1244.0,253.0,701.0,18.0,15.0,16.0,14.0,17.0,16.0,16.0,18.0,-0.1543559335441547,-0.012502332316098924,-0.2651173410685971,-0.21130593818674231,-0.03163143174878226,0.02701533682499012,-0.08729047391196304,-0.1599422326591064,-0.17627980090206155,-0.2656620939020897,-0.207690937997738,0.025099616793037106,0.04904716416916768,-0.3089769910259602,0.028225312586037294,-0.061206290473890534,-0.23600639232285564,-0.13043899542132717,0.053849853746007856,-0.20536092637540024,-0.571667987134793,-0.31602494104443174,-0.23505505078511618,-0.26791791644956897,-0.48500322851558403,-0.3003975347318612,-0.39346199973663915,-0.18962360649063173,-0.7390474173992917,-0.6169873746951552,-0.3792807879848548,-0.3347427603313949,2
10.6,13.375,3.85,4.325,11.975,19.65,4.475,9.725,701.0,894.0,234.0,263.0,796.0,1247.0,282.0,602.0,20.0,15.0,17.0,15.0,21.0,20.0,14.0,14.0,-0.2693453688824139,0.06798427896046035,0.07557580730168975,-0.23820665929283572,-0.7120326638308306,-0.550050410626913,-0.49143154045820947,-0.43196296370833176,-0.21707374784442968,0.005883168241020479,0.008152827385865013,-0.201797805237054,-0.41835997865497676,-0.41771012233216814,-0.35987379788508633,-0.3077110685101999,-0.44941864551829025,0.0741103949400154,0.07194401372790134,-0.3437198525032311,-0.38312714994642405,-0.04787217754098801,-0.22648035430576777,-0.37841879463728545,-0.28255427018427426,-0.03522995254586883,-0.23726585498825017,-0.24683393820992466,-0.1131515193614982,-0.1300530582791575,-0.35431546248516604,-0.2301840955002193,2
13.15,14.85,4.95,5.325,10.55,21.825,4.4,9.9,943.0,962.0,336.0,263.0,687.0,1403.0,258.0,512.0,21.0,16.0,18.0,6.0,15.0,18.0,16.0,8.0,-0.7638578061999298,-0.29724899739450333,-0.21685645583932955,-0.1894809541747129,-0.6423410920612058,-0.46090079396143313,-0.28243368082887443,-0.10692197418912437,-0.38750475398182416,-0.49220580458106605,-0.08602630022847178,-0.1469328443853445,-0.09208486923505754,-0.15300396662692894,-0.2244399149018451,-0.20898613646967218,-0.44107531925645815,-0.24072376061915934,-0.0412080082388792,-0.22361437856625926,-0.3633398188715431,-0.3470777539644662,-0.12332172327916133,-0.33771514286348764,-0.21091914828380146,-0.1802293667757155,-0.20811592437794899,-0.31355589676656126,-0.0738645160489231,-0.47898553005375694,-0.15629742268561203,-0.20021657517807662,2
13.95,12.425,4.825,4.8,10.825,17.7,3.55,10.925,894.0,767.0,309.0,223.0,721.0,1211.0,229.0,695.0,16.0,13.0,17.0,12.0,20.0,18.0,12.0,18.0,-0.7272052718607261,-0.5636639269078054,-0.47585380083072515,-0.2532531405143224,-0.19130413118519285,-0.21474521712759875,-0.09170236606762332,-0.0064123342497253615,-0.35960859460711536,-0.07552354649804068,-0.3653462083296202,-0.15699583539768142,0.0499485355003918,0.035216535830896956,-0.30378203504442697,-0.18661994833889664,-0.4823291481342229,0.02486634783465117,0.05645319696604419,0.02939415358180317,-0.6320774588479449,-0.42277444651518453,-0.30482478118787926,-0.26402497961744115,-0.3479313019048914,-0.28848482472100756,-0.2930140708536157,-0.016894310334044378,-0.32961697273361673,-0.5716022513739252,-0.03057972495994016,-0.13314574268873985,2
16.825,15.3,4.65,4.775,11.45,13.55,3.7,9.275,1093.0,995.0,313.0,256.0,737.0,802.0,225.0,538.0,18.0,19.0,16.0,15.0,16.0,16.0,12.0,17.0,-0.6369186624054148,-0.49760251760997354,-0.23903481884915234,-0.22790049389896921,-0.3693375626351573,-0.12070467043852486,-0.12036295618221843,-0.2235568549566675,-0.3298610645816467,0.030093003660704113,-0.10266246992691914,-0.010170894707693662,-0.47385508950908434,-0.38915182952646327,-0.5901659656749445,-0.6262545495015435,-0.5162253048923461,-0.6825425777016386,-0.22840291593931844,-0.11739786850754072,-0.0705347311849749,-0.2254207698570417,0.0698093082280422,-0.34424983226664185,-0.29842341244533677,-0.14832282187441642,-0.2401365488865294,-0.226375384348094,-0.18109536328635206,-0.26255729996881527,-0.02408407597451202,-0.2195901159726773,2
24.6,17.725,5.225,4.65,15.975,21.975,4.075,9.05,1591.0,1200.0,292.0,262.0,1074.0,1343.0,260.0,621.0,18.0,17.0,18.0,15.0,16.0,19.0,20.0,19.0,-0.8120146678801603,-0.578530613194606,-0.48280917380409294,-0.3780535443354603,-0.5614181646372588,-0.25322272100955723,0.10044113994302115,-0.15500151015905275,0.006290701604884176,-0.1459313658024932,-0.12281096568648218,-0.232544628780577,0.02126854796480099,-0.18251899901313898,-0.3488543177880615,0.01435551981392183,-0.5446561942743999,-0.3957830509724025,-0.07791944136930702,-0.26640549276118874,-0.34473860040570625,-0.2976060638442951,-0.08203530698693097,-0.05998653713909993,-0.6040695037244972,-0.47472160694649973,-0.19322953548923885,-0.10909827997331085,-0.3051873792112431,-0.04283801899199583,-0.06650464633635886,-0.08282429301012435,2
21.7,20.975,6.075,4.725,15.0,22.975,5.025,9.975,1386.0,1349.0,351.0,291.0,969.0,1453.0,299.0,681.0,17.0,16.0,15.0,15.0,19.0,17.0,15.0,18.0,-0.7484854364180832,-0.48896379308278376,-0.2838345441466448,-0.2215515457466305,-0.372783375217541,-0.10252600147035201,-0.016869415143927088,-0.1860996749492784,-0.16301977439222604,0.010780825138744756,-0.22122298089510845,-0.16033259864895955,-0.19746218704926777,-0.1587586360273306,-0.45995622629841176,-0.025483591914386566,-0.33342033468345755,-0.1574300537618636,-0.17381566328371728,-0.4340687598485558,-0.39864402819355516,-0.12365313099716366,-0.012110639469716772,0.05709937536075768,-0.3539019418740919,-0.21126479553307465,-0.24567031633455375,-0.06847430135398458,-0.6035406884199148,-0.40218553132338,-0.2870165580617787,-0.14422117025936662,2
12.75,15.6,3.875,3.125,12.225,16.9,3.6,9.1,761.0,1025.0,232.0,193.0,729.0,995.0,209.0,596.0,17.0,16.0,15.0,13.0,15.0,16.0,17.0,14.0,-0.31941146943981374,-0.18618670807733612,-0.2520253878118274,0.12106717119059153,-0.3262374026031528,-0.0552662279835867,-0.2297503540414612,-0.03856605676128859,-0.2117967817971417,0.06482069377496967,-0.10467490887550233,-0.40246132260232514,-0.24860525639663178,0.19097965033190958,-0.07863494011936159,-0.1277027891255851,-0.21369278029053884,-0.1408746855742276,-0.11576879857057393,-0.3395119784018111,-0.2299479281102555,-0.11442962070396293,-0.31586868074611746,-0.30140670788498847,-0.3261831050168905,-0.12258999735195253,-0.2608289537623869,-0.1907348619656057,-0.4025279105049742,-0.22079939777740773,-0.19621195051539353,-0.3070662874473716,2
12.525,15.75,4.175,4.25,11.975,20.975,3.6,8.775,833.0,1037.0,281.0,257.0,773.0,1418.0,229.0,591.0,17.0,16.0,14.0,13.0,21.0,19.0,22.0,14.0,-0.6634262633104323,-0.42206725951046614,-0.6064903367729382,-0.43603701545714774,-0.4024579676029443,0.011610427617233262,-0.3725077167014657,-0.3387950232190002,-0.4969225199173652,-0.213241979379618,-0.5257990767212959,-0.2971519889518062,-0.27270117823330214,0.196505560768455,-0.3540080701461597,-0.5179282093433998,-0.5355490413642838,-0.3459370555527184,-0.2630764498221162,-0.0625182321096973,-0.523568577268972,-0.1764995387328318,-0.19375381023346402,-0.35126000562717086,-0.354023654401933,-0.12824726478374288,-0.10812885287601486,-0.17128354823977057,-0.4976488803516508,-0.0740962834411293,-0.27335318737393693,-0.1902712029635134,2
13.35,18.625,4.8,5.675,6.675,16.4,3.425,11.65,861.0,1264.0,313.0,363.0,436.0,957.0,204.0,700.0,17.0,16.0,18.0,17.0,18.0,16.0,19.0,18.0,-0.6413498031976437,-0.32340663962969324,-0.23985229145778625,-0.24023037717113024,-0.415454225164706,-0.07510481091928407,-0.08660128012503059,-0.30672014077621723,-0.5738645915032924,-0.10420282119264476,-0.11808502113944253,-0.17345749806777405,-0.37722323535532853,0.06771961678284547,-0.09142193691156006,-0.32862725833538725,-0.19165492268278236,-0.18096646633010152,-0.027646216606289478,0.17960562361524565,-0.43053721808256756,-0.4082763661815444,-0.28201104790693227,-0.23360858281330643,-0.22726072092347133,-0.20070004829684948,-0.06490824430429488,-0.2234664299121503,-0.31116794074957044,-0.1682240539654824,-0.166588193003644,-0.29233849310831067,2
9.0,11.95,4.3,4.9,10.025,20.225,4.15,11.325,528.0,807.0,270.0,297.0,620.0,1141.0,224.0,776.0,16.0,18.0,15.0,14.0,17.0,17.0,15.0,23.0,-0.1488258598681004,-0.06308098230273629,-0.2911003329934782,0.009654712866117684,-0.2859652361752028,0.056866204888441775,-0.18933157892645422,0.03376477624875893,-0.33967205663803796,-0.1115674657788586,-0.22432437932413507,-0.0966491405419174,-0.2534992512151564,0.09709631776287053,-0.1099130135715588,-0.27585257997868684,-0.32066967183486783,-0.26261200618459585,-0.2887733120249002,-0.34611688206924246,-0.28101755401004336,-0.4816745287194268,-0.2652090101007275,-0.39852051191474147,-0.170742513292049,-0.19271751865992226,-0.2299702256777768,-0.21542338500388458,-0.5780215449608969,0.036037214260339526,0.11006586076384411,-0.04994753890569146,2
13.075,17.625,5.05,4.025,13.95,22.85,4.65,10.65,950.0,1081.0,323.0,242.0,758.0,1360.0,273.0,739.0,21.0,13.0,18.0,13.0,16.0,16.0,16.0,17.0,-0.5742923916909601,-0.21102515814810963,-0.22600650430536304,-0.2905625495009858,-0.3363609660275339,-0.19249288617478522,-0.18002650345749263,-0.3622609651169752,-0.4101228472876937,-0.3704372149698079,-0.2429063647403149,-0.30803959565862427,-0.33532787922369756,-0.4311808069602458,-0.27789728491245935,-0.39034312276004285,-0.11352014308295463,-0.2722172638109882,-0.2480530830801439,-0.20060737659789585,-0.28976149823171043,-0.4320229219595038,-0.23430864995932024,-0.29952453360675907,-0.423064125617718,-0.4614301751056775,-0.3289084798510071,-0.4302297553379129,-0.4886078899028278,-0.4088660424781882,-0.1859487247700649,-0.4156981058788667,2
11.6,19.525,4.075,2.975,13.5,20.625,3.575,8.925,782.0,1174.0,246.0,185.0,860.0,1318.0,220.0,510.0,20.0,17.0,18.0,15.0,17.0,19.0,15.0,16.0,-0.53974429558589,-0.25688594418006583,-0.1642515557719799,-0.2401111059044665,-0.2672493391518144,-0.2823688394244251,-0.16720056848729373,-0.4024158623188333,-0.24498004685940106,-0.179496154586942,-0.08164759046341827,-0.19669993914702288,-0.2856756152843276,-0.4009475468821335,-0.13830300632731102,-0.4270309894947033,-0.474452939168186,-0.2596364901427129,-0.27928723158271346,-0.1572608895714698,-0.40048840969372673,-0.28506461232705455,-0.19329880785326714,-0.1614499236198403,-0.29774491707962564,-0.11754275597514828,-0.17964454065768432,-0.1706730203771347,-0.12659753968507592,-0.2704576806381492,-0.14077140933327903,-0.23518246779833296,2
16.325,19.625,4.875,4.275,12.1,15.95,3.575,14.65,1161.0,1208.0,321.0,283.0,863.0,964.0,217.0,921.0,22.0,14.0,17.0,20.0,20.0,17.0,15.0,19.0,-0.6220065128786306,-0.265772958729733,-0.01835275223497721,-0.08668198908212146,-0.17605099108038474,-0.39787822041000265,-0.2146626176534157,-0.3948443041874042,-0.14486336093850322,-0.22071340663340117,0.27505073664375856,-0.23666521493037182,-0.6349623385374186,-0.18956035481939434,0.07291483816310437,0.07368159669256408,-0.8356018795692436,-0.6403828124305868,-0.21074943435023646,0.016045867758439473,-0.2360433629092339,-0.09623852836228192,-0.4178436468576836,0.054404941482537834,-0.31092763736032764,-0.2346023176380811,-0.0982030400294026,-0.1897096394763761,-0.5559144161106203,-0.4000904964008715,-0.3261581830697429,-0.21930168607168662,2
9.625,15.25,4.2,4.075,9.925,18.275,4.0,12.425,599.0,903.0,266.0,260.0,653.0,1192.0,260.0,848.0,18.0,15.0,16.0,17.0,18.0,23.0,19.0,22.0,-0.4328657345759923,-0.5027202834966663,-0.3480430526297264,-0.4905641756841432,-0.15497916040709983,-0.1860701405789503,-0.2165190350169803,-0.12778184389750386,-0.29376676261832796,-0.18501554212014829,-0.15398902732968703,-0.13370650166072467,-0.43264963079240154,-0.28225559409968437,-0.10008128327139289,-0.22537608059683786,-0.45663460321441657,-0.20962771793969745,0.03399584621913808,0.09893570962638504,-0.5936913505797927,-0.4888673063633986,-0.28080599488813485,-0.4454198019530303,-0.5569952162929949,-0.5978941455764085,-0.3111399803054872,-0.5207469106244969,-0.6381633289798272,-0.39247445305341283,-0.1460159465865313,-0.1780105070769344,2
6.925,13.75,4.775,3.55,14.275,19.475,3.35,14.225,372.0,931.0,322.0,227.0,921.0,1189.0,209.0,884.0,14.0,18.0,15.0,15.0,19.0,19.0,17.0,15.0,-0.29971105525563757,-0.04324503434689952,-0.45404781591149984,-0.3936312886155119,-0.48073781865882426,-0.08353068151582754,-0.20344841603774746,-0.3141485948559722,-0.5204190727982709,-0.21451524106051506,-0.12451999361772868,-0.15627439183827502,-0.18157751458530896,-0.16226414371878353,0.028644642326295107,-0.2120639938677336,-0.47373924769975817,-0.391944265937828,-0.10444027352196138,-0.2667024149664897,-0.44473102344187815,-0.26379161923908007,-0.4717656959197107,-0.2954329181326661,-0.5353073845365984,-0.4939749851881711,-0.41425973597220045,-0.18943735294001898,-0.2651142338825111,-0.31042207745233624,0.12231186201094767,-0.14090490769208125,2
5.75,10.7,4.175,3.125,12.475,17.775,2.975,12.55,347.0,666.0,280.0,184.0,781.0,1058.0,165.0,794.0,18.0,16.0,17.0,15.0,19.0,19.0,13.0,23.0,-0.18421948111961867,-0.09132475226553965,0.09651709008226309,0.09051503361957577,-0.3272676330679146,-0.21398012336407926,-0.12114149800650845,-0.17394180065865517,-0.5048257859484341,-0.3393878626896749,-0.23303237301360244,-0.016059484589613995,-0.11898935529191042,-0.3496170350066656,-0.2692965223406045,-0.19032913539460308,-0.40770934180938895,-0.26248054346776023,-0.23689632059600343,-0.31804198030710756,-0.35655701645035076,-0.09606724341005647,-0.3371296581244177,-0.5817946851021544,-0.07562712183350506,-0.14668962336817112,-0.08565992700832048,-0.28052055398847775,-0.34255436745769685,-0.1349810062525517,0.021581605168413065,-0.2520256850588558,2
7.175,13.3,4.125,3.95,12.475,14.575,3.325,10.0,462.0,855.0,267.0,253.0,797.0,954.0,216.0,664.0,18.0,18.0,19.0,20.0,16.0,18.0,16.0,18.0,-0.35867515365908575,-0.24345631615660643,-0.005766147334268655,-0.1228506580778896,-0.5151020993200158,-0.25207445341462625,0.03323434493192624,-0.12011568421936217,-0.4353461680111737,-0.15840462890597842,0.03227162835661424,-0.1959229779671586,-0.48944400394799337,-0.2334407048780145,-0.21891225770050216,-0.07894457792599077,-0.4127814956680661,-0.09864038892225248,-0.13352890670082457,0.06346665749167835,-0.36207846629022844,-0.0026766315924565435,-0.10526799018610601,-0.20443493653771258,-0.24720089627869946,0.03942506290942436,-0.08509977808400852,-0.532451690129941,-0.5389801151739416,0.0036447613996443804,-0.035174815048424846,-0.14431537333375571,2
6.5,13.0,4.375,3.75,13.025,14.875,2.65,9.825,438.0,824.0,300.0,275.0,834.0,893.0,177.0,638.0,17.0,15.0,15.0,19.0,17.0,13.0,13.0,19.0,-0.49011981743328525,-0.18541531136985231,-0.1937277316980029,-0.06215275341232714,-0.3742847785687763,-0.18427564660213094,0.01716331970364714,-0.26909733293128635,-0.5250890222416063,-0.30117451684459096,-0.22400092534329846,-0.26698123370947274,-0.9818823192317097,-0.6770539138759561,-0.4573849628192493,-0.26776365864175766,-0.38894570622910846,0.09338791900611068,-0.02099285681987692,-0.22141448192098298,-0.19618063743386052,-0.041425222442428425,-0.13049025915679727,-0.06932581204373667,-0.3699715155253176,-0.1299897415168277,-0.14831174060762659,-0.3120586976986353,-0.40864677054945436,-0.06057204029979084,0.02529833444271431,-0.04507408905752652,2
8.2,11.55,4.725,6.05,12.8,15.8,3.25,12.25,543.0,736.0,286.0,393.0,804.0,1071.0,193.0,767.0,18.0,16.0,14.0,14.0,20.0,20.0,16.0,17.0,-0.4550356356728855,-0.3158723601678245,-0.24174511360020193,-0.19104114676381773,-0.46900879309597704,-0.43602784294343505,-0.2903125412265382,-0.1240821578721245,-0.3267357728836172,-0.25577995345365084,-0.3474832954116925,-0.04443984337105588,-0.31879688078591706,-0.20463255038004352,-0.17612860229368332,-0.2982008876526563,-0.3949475600045792,-0.2766596383976296,-0.23191053431515646,-0.11240565478054886,-0.4372139711737096,-0.3084309690363024,-0.16988240986372555,0.055218236802995334,-0.2610632494325144,-0.20409253459097249,-0.06608934344656074,-0.10906095149032505,-0.4996769971516469,-0.3494084268212633,-0.29134862752614066,-0.19263082138780335,2
9.025,14.875,5.675,4.325,12.325,22.3,3.825,9.45,578.0,901.0,379.0,254.0,799.0,1503.0,276.0,586.0,18.0,16.0,20.0,15.0,21.0,22.0,17.0,20.0,-0.4281412806119893,-0.4155887113881649,-0.18130848292718868,-0.2885776221967741,-0.32317107525212624,-0.24652720153716673,-0.3020076861324939,-0.14774379785785913,-0.4402444592469692,-0.23858203944933326,-0.18289502075530137,-0.19496691286242773,-0.23854858578797375,-0.12437001882472233,-0.24982566958722086,-0.25881253960911804,-0.3199291220011396,-0.22659953683071438,-0.1454659045960737,-0.32714184194357476,-0.7394798706294418,-0.4673174819533867,-0.43785553146816064,-0.3028873807918799,-0.4279038701471611,-0.055396646230583255,0.06846828677016376,-0.26177436989019365,-0.6075795631104363,-0.5272063104603393,-0.5012928231273086,-0.29408885597540746,2
9.175,13.75,4.0,3.1,12.525,17.3,3.1,9.625,582.0,913.0,263.0,220.0,872.0,1114.0,196.0,662.0,13.0,17.0,14.0,16.0,24.0,17.0,16.0,21.0,-0.37444439327527124,-0.3139444554497549,-0.24846997209628172,-0.19988671763045063,-0.45920095755534296,-0.2855075746922027,-0.36409137866464053,-0.2080165782637124,-0.2376627903492682,-0.011759642844148509,-0.1325716430860932,0.07847855981276,-0.7101375308675654,-0.4083833682174021,-0.3997941004864356,-0.18865583146304224,-0.4486770244974546,0.09283145959406253,0.008752567115100182,-0.02386593853395151,-0.47706077689616927,-0.07274418609057237,-0.039566273838371746,0.077673458116757,-0.26410177766823656,-0.03458151791859943,0.12816363700726283,-0.22159176215273022,-0.4089102425864172,-0.28467488365822924,-0.14964468435330677,-0.38142701354416203,2
7.075,9.6,3.4,3.625,12.275,18.675,3.05,7.85,466.0,622.0,214.0,222.0,858.0,1265.0,201.0,503.0,14.0,12.0,15.0,17.0,20.0,21.0,15.0,20.0,-0.29638771281215964,-0.1222254134612878,0.04731502975353468,-0.03079826302149668,-0.48124969047433797,-0.2404706135775919,-0.3490250130309193,-0.3016275867882303,-0.24373878253400966,-0.04624420560935283,0.10801903142144788,-0.18256710475790747,-0.3599689064381249,-0.23848308145711639,-0.3686365406563123,-0.378235884765429,-0.5890870645033323,-0.0650435905924996,-0.061036142044553335,-0.1424635949152011,-0.2998103093098312,0.009422879465268527,-0.1312034648439673,-0.1870147446592269,-0.30472458299431027,-0.21500250495604856,-0.2847239686440326,-0.21058692108186483,-0.168789719931132,-0.17846878982471331,-0.11498262490649744,0.03104729026401677,2
8.15,7.6,3.0,3.375,12.55,17.425,3.025,9.1,510.0,472.0,186.0,181.0,888.0,1231.0,204.0,636.0,18.0,16.0,14.0,15.0,17.0,13.0,19.0,19.0,-0.3708565883736738,-0.08639960579617455,0.002031008450812989,-0.0907647927005726,-0.3059242371414026,-0.05238607551487303,0.14843213478878442,-0.03827010478501852,-0.30588870903454923,-0.13822819601970016,-0.1967644796452416,-0.13776547010116402,0.05327287686969915,-0.44416043813319567,0.04560445170264199,-0.47110452498354327,-0.623333260257966,-0.46790182111664763,-0.1624999268203248,-0.33538418018376953,-0.4243183859008844,-0.49848651105592595,-0.16530875689184324,-0.4672078657262838,-0.5948836063966382,-0.27775282402332707,-0.17824373302099372,-0.24481661417953865,-0.5750466601894468,0.04214651338662118,0.2779773973325649,0.06982650918061965,2
6.675,9.55,3.125,2.975,10.975,16.575,2.75,9.975,424.0,672.0,201.0,175.0,704.0,1031.0,159.0,699.0,14.0,22.0,20.0,13.0,16.0,16.0,12.0,20.0,-0.22648903614266924,0.026269691997108307,-0.10452409775659581,-0.31513907716880957,-0.47574164382137046,-0.09614054252720736,-0.036792738832665046,-0.1324507786833706,-0.2364556574854519,-0.019794753231870903,-0.2756032145109198,-0.022828324225460887,-0.1755316797900054,-0.37223148092113717,0.026854440692890225,-0.08699576309341094,-0.5361720447255092,-0.4108501983003954,0.09192218528313885,0.16520639613576346,-0.33583029528967,-0.3183258187748381,-0.18129067624143308,-0.4142216696589084,-0.269823646167291,-0.19191822491434068,-0.23102182777091368,-0.2662289164260318,-0.7391612365170096,-0.2409696493419621,0.135888619328976,-0.03528506309110198,2
5.325,7.975,2.9,3.25,11.85,19.05,2.825,9.425,388.0,575.0,213.0,216.0,727.0,1304.0,170.0,619.0,18.0,21.0,19.0,15.0,19.0,23.0,16.0,17.0,-0.4757721035234219,-0.1961320622374255,-0.28231211888659097,-0.19703438348543867,-0.6546082954769857,-0.1919926681794329,-0.35611382042317097,-0.3014269147139071,-0.397065657818485,0.11215885136318174,-0.19736234987589005,-0.1762574204382738,-0.26699212984508675,-0.010154186285680702,-0.2040851163060871,-0.2155945140752356,-0.5093892706711849,-0.3818147318353353,-0.20268172335619875,-0.13972165262152553,-0.7306144469112857,-0.6260878098738737,-0.38556532716719905,-0.29406863906735636,-0.44906381836611803,-0.5232126780657351,-0.2511796327604152,-0.2207145751922008,-0.508138659808916,-0.1770962760891833,-0.06002791534648821,-0.2937882665571234,2
6.875,6.9,2.525,2.975,12.725,16.475,2.55,9.3,400.0,384.0,159.0,179.0,822.0,1088.0,129.0,439.0,14.0,13.0,17.0,16.0,20.0,20.0,11.0,10.0,-0.19195708691477875,-0.34768639638907745,-0.1792729057013917,-0.08491160896411266,-0.26479470273825656,-0.27415396293065303,-0.2893000627136824,-0.4809214519201306,-0.38338373839873285,-0.32550901192278664,-0.2817252991479919,0.0047553467876499,-0.18405048331239354,-0.2264715336643003,-0.08711913077881334,-0.24810108631975852,-0.4496141485423064,-0.2510913243034082,-0.030704639826608805,-0.19849212898845814,-0.37532257558098564,-0.13602397712651773,-0.16480688777252997,-0.3485347658674316,-0.06010768981433152,-0.05908200470611851,-0.28883358747097876,-0.3601443221665191,-0.05313392383794999,-0.04586647474515031,-0.12394981820550928,0.03237025481442653,2
6.2,9.3,3.575,3.75,11.25,18.65,2.825,9.95,381.0,583.0,239.0,232.0,799.0,1145.0,167.0,570.0,18.0,20.0,16.0,18.0,23.0,14.0,17.0,18.0,-0.3261045230598416,0.02878854980150434,0.027727593800142128,-0.05592737387325674,-0.4063525957433778,-0.08085439384423648,-0.4114212632495313,-0.3473550383446941,-0.44134960783267757,0.008765693788422934,-0.5017696260517338,-0.3551830473785475,-0.5168734358990388,-0.2895097607178972,-0.4644517656142734,-0.48346216173889645,-0.6531270027780984,-0.2830183740697894,-0.16091841867568007,-0.3014919643279519,-0.4864055639758089,-0.40144215315488496,-0.4534384661746486,-0.5703938999397624,-0.23094488066872282,-0.0001670095354305701,-0.2493128224845805,-0.4981656395189052,-0.19173189609386462,-0.08432776812591566,-0.016560123028561188,-0.26054204715096235,2
6.4,4.3,2.5,2.925,10.95,15.9,2.6,10.075,411.0,238.0,147.0,177.0,674.0,1037.0,170.0,612.0,20.0,11.0,11.0,16.0,15.0,21.0,13.0,15.0,-0.3120147470804256,-0.09621282807727903,-0.03636263193573334,-0.21934216195509898,-0.3707597498723165,-0.11478012542167336,0.06241764592248283,0.2269168578074372,-0.2737236739820579,0.027991578647220215,-0.2629162332706456,-0.19369351878508534,-0.176008854259445,-0.3257432045927432,-0.12099939867583992,-0.3608987858925404,-0.5297412245332062,-0.3480720574466084,-0.35161574089570763,-0.22736473375130942,-0.5402647369830333,-0.3664512120790927,-0.36589259211170155,-0.3515994024244553,-0.36263865639203846,0.04825828701343493,-0.04904320553565391,-0.5227611001213205,-0.27818770634165746,-0.14640871584582768,-0.18599598981238472,-0.2606237273845969,2
6.6,1.875,1.725,2.85,10.775,16.95,3.25,9.75,466.0,86.0,99.0,157.0,637.0,993.0,201.0,595.0,21.0,8.0,12.0,16.0,14.0,18.0,15.0,16.0,-0.4610898822742957,0.02105317541820373,-0.2265344897702403,-0.26208576182254495,0.23962304777417542,-0.3714829075813583,0.0986111231064543,-0.2711502427202717,0.053315903595752105,-0.09724705739617838,-0.13608516472068388,-0.15981223632478653,-0.06450353335979878,-0.2913859644277911,-0.23738317424094096,-0.1777535611105168,-0.35160752995179084,-0.2922405033250471,-0.01841486803822152,-0.09145100552205322,-0.2710187235532554,-0.42236918212251673,0.11341733930903335,-0.19042644033508715,-0.38178824500424685,-0.3980140307381371,-0.1308901733276696,-0.2680632723598573,-0.2991687994422785,0.07688629317724972,-0.06650760684408008,-0.2613979214873654,2
7.45,7.9,2.825,3.75,12.725,15.675,3.625,11.275,514.0,496.0,147.0,218.0,807.0,950.0,240.0,664.0,21.0,19.0,11.0,15.0,18.0,16.0,16.0,17.0,-0.3976975412997637,-0.05919154094223447,-0.04347379235446208,-0.276751999214541,-0.5462568542329765,-0.5933666975812697,-0.45194534495661326,-0.4378992639298543,0.020728974646505225,-0.16692031026606993,-0.5835317589630933,-0.020485057756882714,-0.20358726541436847,-0.614182146388694,-0.2848063577933175,-0.41719545287131876,-0.4712665159192434,-0.21790715700517277,-0.06101012152268813,-0.18702114045762439,-0.3539927090961439,-0.4375809085471953,-0.1631704928515479,-0.36600450264911216,-0.3341692803098008,-0.3249525541717369,-0.044906274904137275,-0.3521268981872245,-0.24444017790631267,-0.24773142330487968,-0.16656577592228783,-0.20441860427989605,2
7.05,5.025,2.775,3.325,11.575,14.75,2.825,9.2,419.0,303.0,139.0,147.0,701.0,972.0,178.0,512.0,13.0,17.0,11.0,9.0,16.0,18.0,12.0,16.0,-0.14048544813164363,-0.2145278730959914,-0.23139873369143604,-0.26931864000296163,-0.3837135896853374,-0.42941279100077784,-0.21062766367169927,-0.44281532764179177,0.020873199280238963,-0.13283570756892113,-0.2840902357922299,-0.18036108484424002,0.0891502517769431,-0.04777230306985238,-0.2484324877806019,-0.21791353608999262,-0.5471126744136359,-0.36322810900316177,-0.28084228820099394,-0.1772620634178315,-0.8633260927486841,-0.8222249750913497,-0.6313810178806277,-0.41347925724140483,-0.5509219874816175,-0.17105673514892109,0.19979337062686936,0.08870859623866267,0.008258352952329597,-0.25384461416288556,0.04857389144719529,-0.1367534242114472,2
6.975,4.675,2.375,2.95,13.65,16.025,2.725,10.575,404.0,264.0,130.0,177.0,837.0,992.0,155.0,744.0,18.0,14.0,16.0,16.0,18.0,16.0,16.0,21.0,-0.2045512280565657,-0.22159144883536805,0.06026614361933983,-0.1664951636126162,-0.3036194882819413,-0.36777108692977545,-0.10691681489431673,-0.1330634014475805,-0.07602851111447183,-0.11427181884943151,-0.05860061677076921,-0.18069074936407664,-0.27901291792798516,-0.0589767063853057,0.15583393793163086,-0.1979381577477487,-0.4569158103166582,-0.5110148616430378,-0.23021121281833914,-0.33835731913140515,-0.4298274003826305,-0.5588318558336707,-0.24710996675349878,-0.29167541909756023,-0.19706363495428728,-0.031526462962474903,-0.19702307360648605,0.013498256128135702,-0.34238313305983786,0.2647979278367888,-0.2135315387916769,-0.3080314011343716,2
7.65,6.2,2.925,3.275,11.15,18.025,3.85,9.175,446.0,328.0,159.0,195.0,734.0,1218.0,267.0,594.0,15.0,12.0,13.0,11.0,18.0,20.0,18.0,15.0,-0.2056092737214932,-0.13145354688260869,0.08261473849704669,-0.19418580840530378,-0.29910663982373437,-0.3935085017799607,-0.31210188076022666,-0.36768723370358347,-0.22776078507861522,-0.1440877022178824,-0.3460079242881051,-0.1464077684304693,-0.2609614964542016,-0.3628099765914437,-0.2278858398111144,-0.40446599916527864,-0.4371272751035968,-0.3900739148070639,-0.17672582086084931,-0.24218762708763683,-0.7215906877800925,-0.6016603171307764,-0.5200569676544677,-0.44094476861267723,-0.6634667267080441,-0.3478193199698381,-0.23996110260352652,-0.11221083754686927,-0.2660849062711997,0.33591532326925216,-0.10372737633888227,-0.18320510653524144,2
8.175,8.375,4.25,3.4,11.7,23.925,3.65,12.075,496.0,481.0,263.0,188.0,766.0,1612.0,220.0,743.0,16.0,18.0,10.0,12.0,19.0,19.0,16.0,18.0,-0.30615749369620227,-0.23963256763033378,-0.3625007414912389,-0.3272755190212901,-0.24716187578391058,-0.5690899798464318,-0.09135770456144178,-0.31624113629266687,-0.34003219898540266,-0.4568913327543843,-0.22292169779562226,-0.29337608618076605,-0.23716208127158644,-0.17177974193239637,-0.37164408859842607,-0.5097812506307662,-0.582122388156346,-0.28532532749288575,-0.009695886634212645,-0.12353518286858735,-0.5892889626162503,-0.3937688869466299,-0.3882176055593349,-0.288728517745316,-0.35339487932113234,-0.16983204995522694,-0.12562233149735172,-0.16979403513937025,-0.4352214804430168,-0.18312267997200787,-0.3241103727478434,-0.28412198334161726,2
11.175,14.9,4.575,3.15,12.175,19.525,3.25,11.175,728.0,990.0,279.0,194.0,760.0,1266.0,193.0,763.0,20.0,21.0,13.0,17.0,19.0,15.0,18.0,19.0,-0.39875026875405906,-0.41330763583043706,-0.1728346133884741,-0.0565764168158164,-0.7085494911017028,-0.6024027003047728,-0.656308865899946,-0.5945893810429892,-0.41844925907563224,-0.36698299028894366,-0.027773480393102262,-0.2553861665176451,-0.41998090907334995,-0.1886447032284318,-0.09111934057418922,-0.07866362631659037,-0.4305764825122885,-0.47248211206039137,-0.1919115902004472,-0.32425329938876124,-0.46187547190134903,-0.4497732661823466,-0.1850497229971135,-0.1293503886914401,-0.6515804233487107,-0.5902945050130768,-0.5043077082757177,-0.3787921011277953,-0.4484075102415495,-0.12350729908916991,0.0841604199779109,-0.28466609927228553,2
12.975,14.15,4.425,3.075,12.025,19.725,2.875,9.575,864.0,840.0,257.0,193.0,782.0,1245.0,175.0,629.0,17.0,18.0,13.0,15.0,20.0,18.0,14.0,19.0,-0.21391149225796807,-0.2671024044296896,-0.013116134716465888,-0.025577444187032578,-0.45474274567966405,-0.31603359512984186,-0.15914275670929384,-0.1575543334673243,-0.4821523302212488,-0.611867870749219,-0.4805006058551238,-0.3244675727290707,-0.4819589157570277,-0.2837834107174811,-0.15027660765400272,0.005638930199300135,-0.4425538957897434,-0.3115464329387336,-0.3107601006112091,-0.23968956622616114,-0.500903340496008,-0.21102838558371484,0.09922039606658384,0.06058924579059812,-0.47486292298950833,-0.13355413514566147,0.03871720005661732,0.04375576579189583,-0.521044764681632,-0.036620854605704495,-0.007140609889422134,-0.003157376880847662,2
11.125,10.225,4.125,3.05,8.75,18.3,3.625,9.575,705.0,611.0,271.0,201.0,582.0,1160.0,226.0,630.0,15.0,19.0,15.0,15.0,19.0,17.0,17.0,20.0,-0.20335838419126354,-0.12525078080721724,-0.039043756856459264,-0.17781453470288508,-0.2660361574766015,-0.2088325656059687,-0.17975196964895157,-0.39752809056301974,-0.38112764337808946,-0.4894933477552546,-0.38488632455963684,-0.3722338765941013,-0.3217121369246733,-0.1431188553309868,-0.2795074782106185,-0.3857272504058671,-0.47635084931256,-0.13553939744728663,0.13370929286636005,-0.18193785789233224,-0.2634489098463373,-0.2030541176681857,0.10149796244205365,-0.19454370625996467,-0.47876045889919344,-0.38027756353871195,-0.29267542862174306,-0.4219006933841747,-0.45044195306779067,-0.20606009523216612,0.03252839903676722,-0.14817136427529767,2
8.775,11.725,5.4,3.95,12.925,19.85,2.5,7.0,589.0,779.0,376.0,213.0,822.0,1334.0,137.0,400.0,19.0,18.0,19.0,13.0,16.0,20.0,14.0,16.0,-0.7145543815345866,-0.3569497966599554,-0.24079618889500348,-0.16303931848737124,-0.29992350493752673,0.12318169876864989,-0.14968784661489667,-0.3582931280740509,-0.9361815337523614,-0.6798179348440039,-0.6948568648019124,-0.40730102531254686,-0.1274104172110835,-0.24837306346456467,-0.3610277499132636,-0.11710465944349888,-0.6649089016740728,-0.5747101519991279,-0.3178269247616351,-0.2700344679744035,-0.7223295120560033,-0.36481814908677085,0.02861829813028791,-0.05079138450391509,-0.09311729816874728,-0.29186682133763253,0.14535134948866021,-0.2381845921374397,-0.12772161266210877,-0.02529848216211415,0.05283784168649093,-0.07043175451515885,2
10.825,17.8,6.45,5.0,18.775,26.175,3.15,8.0,790.0,1194.0,420.0,319.0,1283.0,1806.0,196.0,482.0,22.0,18.0,17.0,18.0,20.0,23.0,16.0,19.0,-0.7581714684823568,-0.2985197447220647,-0.04986739360292445,-0.21093185380239882,-0.3365564503138994,-0.057526297632508674,0.014154178202398266,-0.09722367966945586,-0.41701278422933263,0.13631088249808337,0.052227912126245064,-0.058643923692705324,-0.3795418698069741,-0.14706094988208837,-0.1173879417169095,-0.1293308108418982,-0.7600067833124666,-0.45321827325403374,-0.17970422007002526,-0.10466625149423482,-0.7010106645263469,-0.3730891061531567,-0.4086095585526244,-0.2459276881987475,-0.34822991977656276,-0.012788313125911964,0.042247336137874854,0.051042948783530454,-0.5253496507038768,-0.5728051836828951,-0.2878608504637763,-0.21615831960481363,2
6.9,20.975,7.1,4.75,16.95,22.05,3.975,8.85,465.0,1289.0,378.0,269.0,1248.0,1410.0,225.0,590.0,16.0,18.0,11.0,12.0,22.0,18.0,13.0,20.0,-0.6409340484004074,-0.4772229161621983,-0.3017603235971043,-0.09116761157408806,-0.20798280772516853,-0.05188636546844988,0.08859044677254646,0.07856713740395292,0.10675796670747986,-0.1657041391528058,-0.12512611856627423,-0.031225491926623362,-0.21575477287944306,-0.43459949526733216,-0.35001010967288687,-0.25060834947634,-0.5906790370082495,-0.1077993524782826,0.0347126802286326,-0.15736554135097103,-0.3384247135711589,-0.2951809500732804,0.04112360740587766,-0.14246949170692033,-0.20735971647813486,-0.030803306469847098,0.11332902819253475,-0.21761112752133294,-0.3319869712745224,-0.36719841384166957,-0.01983834091744091,-0.237887870137553,2
7.15,15.85,5.825,3.525,14.75,24.525,3.45,11.45,490.0,1153.0,359.0,187.0,938.0,1614.0,206.0,785.0,20.0,20.0,19.0,11.0,17.0,22.0,16.0,22.0,-0.5653990030812097,-0.11302487927323805,-0.038743984885665064,-0.15842805441200278,-0.7786331458367772,-0.3689268532710157,-0.32728418455074726,-0.10149761914563084,-0.2080474765904832,-0.13084270015430574,-0.1599952302018963,-0.04496181398740192,0.04824130345024976,-0.08190071279477326,-0.0856240304839684,-0.3218881137518028,-0.35816274477940324,-0.10975194754759501,-0.3093705626334612,-0.13840610399516948,-0.352389345462731,-0.10400180143036641,-0.3478409285812674,-0.13534941472598813,-0.18673949268903223,-0.08549308486556075,-0.0005529489996392843,-0.22891267866972867,-0.41072105909186607,-0.24373829016453283,0.12519993599363805,-0.12032239288344317,2
7.025,14.0,5.325,4.175,12.625,21.35,3.85,9.125,396.0,885.0,359.0,250.0,807.0,1393.0,234.0,614.0,10.0,17.0,17.0,16.0,18.0,16.0,16.0,20.0,-0.4213280604220672,-0.23476739525102022,-0.331269161360492,-0.2787805282754513,-0.2795781641001452,0.06992519780743947,-0.2290002098055856,-0.11116276686200437,-0.471502906056467,-0.21085049277811174,0.0546909045086206,-0.21809024234389807,-0.2979844887317086,-0.5180126882776895,-0.07773514034146457,-0.4580496416573573,-0.431226718012129,-0.24396650708621023,-0.08923199811644912,-0.2786930834005412,-0.38998462191998506,-0.34008416779365014,0.040856338048290884,-0.06483281433534413,-0.4961215479363062,-0.271084562437363,-0.1501996260288912,-0.03490955137405801,-0.3497945680904553,-0.02638726350706293,0.22542178300716384,-0.09007611772940396,2
9.2,14.8,5.325,3.825,13.65,20.975,4.05,9.8,567.0,1010.0,355.0,256.0,790.0,1485.0,265.0,624.0,15.0,17.0,15.0,14.0,20.0,22.0,18.0,19.0,-0.6124108693073959,-0.49994763227032135,-0.5356042188420848,-0.4539608941947485,-0.5426731272006399,-0.4985855085748837,-0.41507485683133477,-0.491126031221855,-0.5637261684146124,-0.2290270180343492,0.012260824178773529,-0.23003623751347682,-0.4317294610293078,0.011766004724185031,-0.12387183079580219,-0.3166275835526688,-0.2508918809342269,-0.3749643350452585,-0.205810888673724,-0.0573905925498769,-0.5998150162665667,-0.2987014485438946,-0.010093862611295124,0.268589940404906,-0.5328056401796306,-0.05122983313411188,-0.05155053306006825,-0.0672687601294211,-0.2640203052230412,-0.08884063031840866,-0.13954916194392036,-0.29492565697459633,2
9.025,18.275,5.475,3.725,14.675,16.8,3.35,8.3,610.0,1157.0,336.0,225.0,969.0,1146.0,212.0,519.0,18.0,19.0,20.0,14.0,24.0,22.0,18.0,16.0,-0.7181864161341327,-0.5211679290218025,-0.3660482299014886,-0.3010053574123416,-0.3468342115440791,-0.4229385684087888,-0.012462003851074929,-0.16973963659204291,-0.46107939162457195,-0.23470449467690502,-0.12314996195463887,0.010270175889288932,-0.4727527576665446,-0.3913900740291402,-0.2583031897944116,-0.21397942138447779,-0.6271843515697662,-0.505104046494599,-0.4176923583640836,-0.36992723499052327,-0.4877112982412598,-0.16997339294086175,-0.07676236610508957,-0.22184752624167772,-0.5929309019763932,-0.4705979962437831,-0.2442302339310827,-0.15487012284745058,-0.3644656473035268,-0.2472078750149331,-0.24694547074647846,-0.06920787759750271,2
8.725,15.075,4.75,3.875,15.175,20.9,4.4,8.9,554.0,925.0,302.0,260.0,1081.0,1355.0,280.0,607.0,18.0,17.0,17.0,15.0,20.0,19.0,18.0,18.0,-0.5629271864335882,-0.3360853531474763,-0.07703771708081043,-0.14705762013480142,-0.39726488298535234,-0.382218311443961,-0.3807128732697378,-0.16644833074181753,-0.5679893292540374,-0.3999301041562365,-0.17127639722217866,-0.1969333572034961,-0.16000994968179152,-0.22143476001573967,0.11411129078457122,-0.30111685643966724,-0.6143159852694933,-0.3221512976876365,-0.28270646899721313,-0.3462202942426448,-0.4161969542371649,-0.17290363593097594,0.18181946660730702,-0.05411703317616321,-0.5137120567715143,-0.16543964757201987,0.1773653909573419,-0.049327565680775336,-0.5080048289266301,-0.32573198674596077,-0.4186867165092378,-0.13551750538360682,2
6.9,16.0,3.625,4.0,15.25,22.925,4.225,9.975,448.0,1035.0,198.0,229.0,1096.0,1559.0,252.0,707.0,15.0,18.0,15.0,16.0,20.0,19.0,15.0,20.0,-0.4948607976518979,-0.29639190723825926,-0.37314116838656886,-0.3557746798867998,-0.5855095252939749,-0.5656527822306114,-0.2504567906947542,-0.21103172606619258,-0.06250635038322065,-0.6433016110144562,-0.028732897835924875,-0.2762129229433957,-0.21547481680116187,-0.13048361177889486,-0.3434968954961332,0.05548045262383658,-0.6790473613779998,-0.17912712956590915,-0.03852555112572253,0.02753514617901032,-0.6044860771248703,-0.31770880012734204,-0.43454618148922985,-0.4838570287261432,-0.39599529576141257,-0.05578775033148674,-0.16162577898686759,-0.3895473374628976,-0.6029373086178206,-0.16279900889114116,-0.24017818268044588,-0.34372868455600886,2
6.15,11.75,4.8,3.625,17.925,17.075,2.5,7.225,415.0,751.0,271.0,229.0,1294.0,1083.0,149.0,449.0,15.0,18.0,13.0,20.0,22.0,15.0,12.0,13.0,-0.11518779028235118,-0.14017281910123966,-0.1289962202504359,0.052719933771140245,-0.464080493261191,-0.48673920139198396,-0.21488130294680208,-0.17058978488978563,-0.3024205339976324,-0.4335796665476721,-0.27629864089960676,-0.18182177613897788,-0.4400919973534269,-0.2307344889668353,-0.06963100150642473,-0.07670792337524804,-0.5834570523912675,-0.3499476779215005,-0.09254172141883886,-0.24181511746767947,-0.34878668583210787,-0.12512975921307612,-0.2127242837496867,-0.3882190477518243,-0.3074640596146224,-0.20243708134604996,-0.13320914764337233,-0.39552812097546325,-0.4129375200868011,-0.26375658193742413,-0.3094224890990079,-0.2251234574934246,2
6.675,13.6,6.325,3.675,15.45,26.125,3.775,6.875,388.0,770.0,423.0,236.0,935.0,1829.0,278.0,377.0,15.0,14.0,17.0,16.0,17.0,20.0,18.0,14.0,-0.4039477031267753,-0.29920869727164523,-0.3461561605125137,-0.011177281720956143,-0.1418209181517426,-0.30621060007159717,-0.3213353912644642,-0.11682477870252829,-0.6474557150514145,-0.5361257803116971,-0.4849200046237355,-0.17070191092100268,-0.3361752645024811,-0.2849121129937522,-0.04822904456690358,-0.13546655452413306,-0.32651438212449513,-0.1500243416793077,-0.3286961568597882,-0.27897374834755323,-0.5235397022564968,0.02981209119573101,-0.10053642378692072,-0.22212734223943062,-0.5796185553581611,0.010155540258657376,-0.1218682102163865,-0.26692898549371297,-0.49848773362133336,-0.4066763594477891,-0.31109844987206364,-0.17362230603269532,2
10.2,16.325,5.725,2.9,11.9,18.475,2.475,8.7,668.0,1017.0,348.0,181.0,638.0,1160.0,155.0,599.0,22.0,22.0,18.0,14.0,16.0,16.0,12.0,22.0,-0.4037994174947678,0.0021455372929481123,0.0019170634873892476,-0.22443209114181448,-0.10349052550455659,-0.21437578272555474,0.16616680932248915,-0.31464272242880686,-0.3531479302629313,-0.16068296741938717,-0.22546342255130938,-0.22292447251961514,-0.32379620288975497,-0.03500556872268535,-0.09391659855870775,0.04103419944101178,0.000860877310473248,-0.301735105422753,-0.11651082723602421,-0.23219967416716883,-0.45156535671661935,-0.13523863943303907,-0.38820332807391617,-0.2772509805742095,-0.3674566106079189,-0.16689243418965616,-0.38859533344153524,-0.18008240497645966,-0.5667590151850593,-0.24957284070120914,-0.20536569334500482,-0.3440242286047888,2
10.45,17.1,5.65,3.225,12.15,14.425,3.075,9.65,749.0,1017.0,356.0,183.0,795.0,847.0,189.0,678.0,17.0,17.0,19.0,17.0,21.0,19.0,19.0,18.0,-0.6818656643785734,-0.4148227158660674,-0.4594018436815158,-0.3733854795841851,-0.2502238783581938,-0.08279498442945424,-0.235817862279424,-0.2724828868526481,-0.3917745955155645,-0.34465844286358527,-0.3177458038279561,-0.2526826620641602,-0.2747434073447869,-0.32391228102433,-0.3146817099769499,-0.1627198709262232,-0.46349464632648485,-0.1506912895473698,-0.0935380401473583,-0.13769466578102768,-0.3228648100709326,-0.2728278415580399,-0.2903964079324173,-0.10021175645635036,-0.592094382141912,-0.5007647848926227,-0.4104276629067515,-0.3249245149979884,-0.5733343326322,-0.2568687617361317,-0.07266212220383354,-0.2840570503766219,2
8.3,13.825,5.85,3.425,13.15,27.475,4.325,8.525,542.0,785.0,346.0,205.0,914.0,1639.0,286.0,511.0,17.0,17.0,11.0,16.0,17.0,16.0,16.0,16.0,-0.3769692723636532,-0.1161354296509779,-0.34042344198632907,-0.13612897033679836,-0.10542390116599214,-0.1379495660509136,-0.2848186839153333,0.0715814588257336,-0.392390965535432,-0.393503233851181,-0.46822482404835586,-0.43064869965441854,-0.3583011159633681,-0.33956707627390514,-0.27819833117532533,-0.30884780182573973,-0.45157866406323294,-0.2529672617009613,-0.09677655778975251,-0.2160398392477223,-0.4861715190112956,-0.2548473614946828,-0.24636707770277222,-0.3397604630982121,-0.7051892769783301,-0.6418651313490777,-0.4293518935231977,-0.49076392423058246,-0.5304868379267142,-0.33932634070170703,-0.29165596955839385,-0.16715129199989515,2
7.85,15.25,4.975,3.5,11.425,18.75,3.1,9.825,453.0,904.0,325.0,205.0,768.0,1188.0,201.0,643.0,16.0,18.0,20.0,14.0,20.0,17.0,17.0,16.0,-0.16961672627181199,-0.07950480903656892,-0.11737138213885943,-0.15876262683609121,-0.352002893577389,-0.2098350575306218,-0.19997222931832911,-0.07720791005607186,-0.5902010817320241,-0.5563744329787518,-0.26584297272470353,-0.2607255476089765,-0.2878819409856248,-0.12239020257086988,-0.2915261593575793,-0.2647448350103849,-0.3563129337080499,-0.14714756053257375,-0.23893154588043766,-0.12467508886414314,-0.4637337000598133,-0.25301448149034933,-0.46892732409107946,-0.22705735116044698,-0.6927717556761649,-0.6347074544324905,-0.3639662165346992,-0.32468636730722555,-0.5056360477605419,-0.37537954671734863,-0.40293500601032695,-0.4265660395665998,2
9.0,15.9,5.55,3.625,18.025,19.9,2.925,7.95,562.0,1064.0,367.0,207.0,1161.0,1189.0,181.0,552.0,17.0,21.0,19.0,17.0,17.0,16.0,18.0,20.0,-0.4703023876890187,-0.22604655328799692,0.18499133640688967,-0.0279107463211971,-0.4931364652345293,-0.2650992467674213,-0.01057741648642699,-0.21764409432928522,-0.6586243643137649,-0.6013174804293568,-0.4605961606526056,-0.5184392572951264,-0.23012617865952403,-0.07743861754715486,-0.23416614513276918,-0.21072724579031105,-0.49864311545713214,-0.4509674901578095,-0.20093164063429234,-0.18433178695689512,-0.5844476984351185,-0.5233957551266423,-0.47132589096895583,-0.12181536883081293,-0.3104271179263766,-0.20030750719437876,-0.39825542061616903,-0.17665130946893465,-0.47119935368504695,-0.2612331757325201,-0.23204566221200065,-0.17856734847962927,2
8.3,13.6,4.425,3.625,13.425,23.4,3.95,8.95,430.0,829.0,268.0,212.0,861.0,1580.0,300.0,566.0,14.0,17.0,18.0,15.0,20.0,21.0,24.0,19.0,-0.10221703372228882,-0.07605665401148563,-0.21154985325892595,-0.12914532492266093,-0.3422038401482806,-0.18915689633730629,-0.126723133380438,-0.10709722844372815,-0.15603559791961483,-0.11359202193889838,0.017249575982173335,-0.08607734027234701,-0.31580970710400064,-0.26456507182630096,-0.26163300141232765,-0.17959730561128237,-0.3704432475582325,-0.1765357114942664,-0.3672331195083443,-0.1943449788118084,-0.559101989781723,-0.19165518913480958,-0.3083264790803298,-0.41636367468029395,-0.5967840957094044,-0.060159252890298186,-0.2585373723305132,-0.305004246678708,-0.3910755713141667,-0.16145246189941756,-0.18564559204058814,-0.17584124978242718,2
8.575,13.15,4.775,4.325,14.0,22.325,3.5,7.5,485.0,831.0,294.0,236.0,904.0,1456.0,216.0,458.0,15.0,14.0,12.0,15.0,17.0,19.0,14.0,15.0,-0.08357069275867635,-0.03668450937626935,-0.45674247717429733,-0.03238390283849737,-0.32073704674025105,-0.15593952545609602,-0.32132573543016113,-0.30634775345063847,-0.28086904629929116,-0.12521312970164458,0.02461933423360973,-0.22796865086938337,-0.257423807249408,-0.2576886348267667,-0.18310496095814116,-0.33607494695765966,-0.3846405749194905,-0.009543232061337682,-0.031511041667096,-0.18513819010208252,-0.4626497443886481,-0.3234909436607177,-0.2233567190154888,-0.27166216876084387,-0.18884358414961938,-0.24718263728271356,0.03653875666719058,-0.1373290040342082,-0.2774697977383047,-0.16597609254912088,-0.10536950440368048,-0.15540950311582757,2
9.75,14.3,4.925,4.85,14.1,28.4,4.7,9.175,613.0,838.0,325.0,284.0,1033.0,1889.0,288.0,576.0,19.0,14.0,22.0,17.0,25.0,20.0,18.0,16.0,-0.2911216235019568,-0.23028093120210086,-0.05769823441804851,0.05386722560782079,-0.30006272528160366,0.02501585885580087,-0.2862673184840464,-0.3035760385109097,-0.4903379370408433,0.00578349703024716,-0.06389060233286392,-0.14160035303856613,-0.393343156668314,-0.13924569507686446,-0.29775635969115577,-0.3262977251855408,-0.5066219328939235,-0.002423470945266624,-0.20062469968838553,-0.07957263544987238,-0.7014864005653022,-0.4969808726837158,-0.466386671551486,-0.3172403234883365,-0.39352116252049046,-0.23142513201388826,-0.24558892540654056,-0.15081903912266234,-0.19652835663863671,-0.0983390798700524,-0.35169888431167906,-0.13336446332236365,2
12.025,15.475,5.55,4.125,15.025,25.625,4.0,8.675,814.0,951.0,392.0,207.0,993.0,1489.0,221.0,550.0,19.0,15.0,20.0,10.0,18.0,15.0,17.0,16.0,-0.43223362669215554,-0.4014883028541955,-0.28958315467111856,-0.20688432653550134,-0.3702630024255133,-0.31262123566717787,-0.07454828519156277,-0.20234900493940408,-0.6858813915883055,-0.427340716773077,-0.42796854945642593,-0.6360525042667037,-0.08353539611506981,0.07886594281098475,-0.36956720129013926,-0.20751173906999082,-0.5427626013792529,-0.2406095798392135,-0.18635847909079506,-0.02179713074493256,-0.16379700568769057,-0.35945405698565247,-0.13532613180393727,-0.04066447377103959,-0.2170540298161008,-0.23836325037029998,-0.04948962110256921,-0.1606225618315521,-0.3274597582505435,-0.1629078784047731,-0.2724277590781979,-0.3280310036566195,2
13.65,11.975,5.25,4.4,14.4,21.75,4.5,10.4,863.0,564.0,277.0,269.0,976.0,1404.0,291.0,709.0,13.0,12.0,14.0,11.0,19.0,21.0,19.0,20.0,-0.4262478947818774,-0.4431475201553673,-0.3978234498418784,-0.1384078646618976,0.33102524823117035,-0.2162002075668549,-0.21973634884883186,-0.053952968138038813,-0.048541309051828525,-0.17189688472395503,-0.13302741994941686,-0.20193410013517082,-0.12250145300680558,-0.17868445852755224,0.023481116531068175,-0.33191908067082326,-0.5112988377451548,-0.4883947508858545,-0.16017824540255565,-0.4368323706289127,-0.44592874818921124,-0.3581541848332853,-0.35531693133811737,-0.3566221269417396,-0.4299736376691775,-0.07260433275069639,-0.03927476931267588,-0.19779239586719363,-0.5006783194749431,-0.23462002805323912,-0.250022539816813,-0.12438658837997979,2
10.8,10.8,5.4,5.325,12.85,15.725,3.075,6.625,663.0,688.0,288.0,334.0,865.0,1098.0,192.0,384.0,16.0,18.0,15.0,15.0,16.0,20.0,14.0,13.0,-0.3436534015978387,-0.4581699206814306,-0.27327142645644903,-0.08043459008557718,-0.19964686787722757,0.16220046073540859,-0.04247412619869155,-0.09749135205775866,-0.11039406759779323,-0.03646296185920828,-0.14727753428503212,-0.45280277472480807,-0.3188964711042899,-0.16959732409170034,-0.35048201487080355,-0.2972774749868891,-0.3948030089709018,-0.10685429028943827,-0.21761889958225503,-0.26051521175843406,-0.4355361232178518,-0.0710120133382609,-0.10962023045106344,-0.1680976323339971,-0.44161875395414346,-0.18726572113824116,-0.12835300512480785,-0.22344400927428995,-0.5592566306833742,-0.39337569756506524,-0.49609642683287686,-0.2508490335535146,2
5.75,12.275,5.55,4.475,11.525,19.55,3.55,6.275,344.0,717.0,335.0,242.0,815.0,1252.0,234.0,420.0,17.0,19.0,17.0,13.0,17.0,14.0,16.0,19.0,0.024615036952253904,-0.41895996652703327,0.021753833535532025,-0.22243173747032324,0.06018392974246537,-0.06482198074747864,0.232447887710508,-0.40827147003183295,-0.11453794080731965,-0.17640868272637242,0.0895305921818238,-0.3878647493275692,-0.11962458880600887,-0.25391476521326234,-0.3792232593218616,-0.17469211068171953,-0.6159491336612504,-0.5209983230500128,-0.2734110164995708,-0.1878920407464246,-0.4209451462980808,-0.07318923136024076,-0.13851661167114768,-0.35015531514821946,-0.5126371016453962,-0.3219283299146844,-0.41725516170136356,-0.48467416967767735,-0.4670439978236408,-0.36878864751290846,-0.25543204579743667,-0.2077317496087732,2
7.575,19.2,7.3,3.75,10.375,19.975,3.425,5.275,465.0,1211.0,487.0,217.0,658.0,1188.0,210.0,302.0,17.0,19.0,20.0,15.0,18.0,15.0,15.0,12.0,-0.3477133704637779,-0.13119058601847008,0.21414709845440913,-0.033252953078042526,-0.2741260343596353,-0.2138937713406332,-0.0256927971561616,-0.06075357968238585,-0.5105423907496796,-0.060104404135715085,-0.08751583900875234,-0.17233114465709756,-0.35400574927421663,-0.024554442612132993,-0.5507543961382559,-0.45152099141312463,-0.4033224509851772,-0.22100139342974995,-0.21168950888963234,-0.11449681785424053,-0.34547946526668183,-0.313493328763099,-0.3861182685269567,0.00659559854606555,-0.34498653520923783,-0.07482854840517844,-0.5016693688428776,-0.16094607550826243,-0.24405916300573352,-0.18870354220987037,-0.2259780506381388,0.0192911782566432,2
7.8,20.4,6.325,3.725,14.3,24.025,3.9,7.4,501.0,1375.0,429.0,239.0,940.0,1450.0,272.0,448.0,17.0,19.0,17.0,13.0,22.0,16.0,19.0,21.0,-0.24776764199845208,-0.18333155782590735,0.019578812832145725,-0.23125982002392576,-0.4833119226922866,-0.501214710915601,-0.3359292081355183,-0.2064623315596012,-0.4370945353382138,-0.18934530547255388,-0.04989039645759862,-0.14751893660584264,-0.45843106193826355,-0.26956597742117444,0.020349387999725438,-0.1173752398873659,-0.3787745301976386,-0.2229325765007867,0.09955787665495154,-0.12503231780871948,-0.4943813135973169,-0.4723912301417764,-0.5307411695857417,-0.1658749297064438,-0.54144983819334,-0.18190392474864756,-0.32436494852284076,-0.08150452392292432,-0.4710986201151403,-0.33008388848238995,-0.09171287230769075,-0.3001939160679502,2
7.45,17.925,6.1,3.45,13.825,18.175,3.65,8.95,442.0,1203.0,426.0,216.0,950.0,1230.0,246.0,586.0,16.0,17.0,18.0,15.0,21.0,19.0,18.0,19.0,-0.33485846808734576,-0.3604745435910809,-0.287125961575884,-0.24795571455221535,-0.500203810456417,-0.26710556972773297,-0.35593090604484223,-0.4243992448119721,-0.5259561376028078,0.02883792244205874,-0.20501954452702428,-0.19143197765074377,-0.35462269919306993,-0.2103590492293467,-0.525846068208552,-0.15634711635444454,-0.4900526138827044,0.10928072497019849,0.05040491586800924,-0.2628067256520682,-0.5015548123198142,-0.21724066779618587,-0.0982370006488975,0.02429766273298136,-0.7277480702677165,-0.27795514892017403,-0.07576136326485983,-0.08149268653351818,-0.49299361567682226,-0.20887412958043708,-0.18445514822973003,-0.2169300357182852,2
7.7,19.0,5.6,4.1,15.725,16.2,3.2,7.125,468.0,1133.0,356.0,239.0,1048.0,998.0,190.0,487.0,17.0,16.0,12.0,14.0,17.0,17.0,16.0,19.0,-0.3247169657406858,0.026448758964677722,-0.08868294359217395,-0.23793608404668795,-0.39209495518293597,-0.09015688983479653,-0.2704813360542436,-0.36809184392357086,-0.5032813632055214,-0.06781582462267538,-0.06606020211251475,-0.1060276790388018,-0.30758242895093796,-0.29248414167359765,-0.3312301979773955,-0.24491836003473041,-0.5540813966898528,-0.3877273621048489,-0.20182105688994406,-0.3155452809761704,-0.3353474536705585,-0.36584009142369023,-0.10867009770734565,-0.11271849371594565,-0.40178055812849667,-0.57319597100034,-0.1308592493859166,-0.4902060656538056,-0.4941101871966997,-0.04772452566384027,-0.12140182490063899,-0.14983847602132136,2
