0,1,2,3,4,5,6,7,8,9,10,11,12,13,14,15,16,17,18,19,20,21,22,23,24,25,26,27,28,29,30,31,32,33,34,35,36,37,38,39,40,41,42,43,44,45,46,47,48,49,50,51,52,53,54,55,Gesture
8.575,11.5,4.45,3.35,10.75,16.425,7.325,13.725,585.0,642.0,295.0,216.0,801.0,1129.0,464.0,883.0,21.0,12.0,15.0,15.0,23.0,23.0,17.0,16.0,-0.4504369173918872,-0.2903563029718222,0.07834308224519368,0.022554826596683075,-0.2493035831865036,-0.19701883183093105,-0.10983409934938197,-0.27042209150151164,-0.4442894881630714,-0.09250810241708163,-0.1209375627390247,-0.4562724532187478,-0.6584353158854859,-0.7274357861560568,-0.48964918443932454,-0.37654341713979594,-0.5575649418044639,0.040274131030882857,0.3023028538073427,0.15506760335595185,-0.40843980462117424,0.03513387723811762,0.22805620872526064,-0.11209539131837959,-0.3377660723946193,-0.12273443464531789,-0.26622389903178656,-0.06831633575583573,-0.20034592134423357,-0.07368845540307672,0.11335258132121491,-0.26009296264975773,2
8.15,12.225,3.15,3.775,11.375,17.325,6.35,11.525,474.0,716.0,208.0,228.0,734.0,1142.0,372.0,685.0,15.0,16.0,18.0,15.0,16.0,17.0,18.0,18.0,-0.26644886902702414,-0.3390675948540751,-0.32172687801031963,-0.29304413694953696,-0.42414206393778264,-0.337375386659722,-0.29003554188584846,-0.11975824229016435,-0.3253859191669738,0.040307870359354826,0.255921750217423,-0.15711147500843742,-0.26747054141805165,-0.22314639160410638,-0.0035855933361584125,-0.12957717743453329,-0.41849981565724,-0.122252706621695,0.321444455952456,0.07574549104355212,-0.3393263493422674,-0.3887912775804765,-0.14367319792942024,-0.38244163808396087,-0.3937887158485191,-0.36355544176538146,-0.09379836672199804,-0.10749797278170149,-0.3260985241615827,-0.11729354709354384,0.0913931885577503,0.07896029084773186,2
7.525,12.625,4.2,3.425,10.4,13.525,6.575,10.8,454.0,888.0,273.0,233.0,726.0,826.0,462.0,691.0,21.0,19.0,14.0,17.0,20.0,13.0,21.0,16.0,-0.46471515130446833,-0.36305740111948315,-0.4135934832345023,-0.2744116011876396,-0.5587245258073912,-0.3917428690069209,-0.2161800417198432,-0.192874960086452,-0.579252985688784,-0.4318762066370611,-0.17899786689653854,-0.22532933406523087,-0.5261237023271659,-0.2109572009598732,-0.37483759342572365,-0.10414877810916984,-0.5889698468811141,-0.11048711873882512,-0.09770781646871593,-0.04719526326268505,-0.23113469474218465,-0.09008937977814381,-0.035820343420094505,-0.18966750842444985,-0.5418506041051449,0.028429927646169192,-0.2236303720219268,-0.18134951068613972,-0.2899364506612545,-0.2816263767674679,-0.039079373883793345,-0.05252253778368486,2
8.775,12.275,4.25,2.4,8.175,16.35,6.85,11.775,529.0,797.0,269.0,165.0,449.0,1070.0,460.0,785.0,20.0,18.0,18.0,15.0,13.0,13.0,20.0,20.0,-0.32083199236847176,-0.2840078289027046,-0.16258158548852014,-0.33895782096631777,-0.2615174222552802,-0.2956897427002148,0.010487886896991438,-0.3980134132110449,-0.36966140514842577,-0.26202001730566454,0.03520716992677618,-0.3366632482621362,-0.10729637927567084,-0.02919650801212825,0.24347257441108247,-0.21211002696351006,-0.07571206468449017,-0.055657954990593284,0.18826005552265387,-0.21500637834580824,-0.2667730957441648,-0.06248783718878188,-0.16208727512387816,-0.07502072005119824,-0.4404082356018354,-0.009940068654713906,-0.20126695011109785,-0.310958389527013,-0.5042618216143049,-0.351302470535974,-0.22083166150742595,-0.3485699446165478,2
9.175,11.075,4.45,2.875,8.85,11.1,7.125,12.3,618.0,741.0,273.0,168.0,506.0,664.0,468.0,822.0,21.0,21.0,17.0,14.0,12.0,14.0,18.0,21.0,-0.4571442229786079,-0.3203550587084204,-0.1941261795160102,-0.4837084148939646,-0.440566642086472,-0.28485707402573684,-0.2338689573224579,-0.43923557067416114,-0.5617389889336749,-0.5568492164010623,-0.4051963709880187,-0.30133905786256954,-0.1973573715089219,0.22063433675460198,-0.24350350254632022,-0.24966917961067933,-0.3278002196008734,-0.3546143509738096,-0.3806164365121234,-0.18174973463998967,-0.30168762403954036,-0.2638862320360168,-0.3006171531881366,-0.5145540873614013,-0.4243370511794053,-0.33608237217966164,-0.046367986660088095,-0.3160974760067243,-0.5629287753770811,-0.43363217216493494,0.11914079954153406,-0.03874431610675798,2
7.5,9.9,3.65,2.775,11.65,18.75,7.5,13.8,516.0,658.0,232.0,179.0,789.0,1357.0,460.0,902.0,18.0,16.0,18.0,18.0,24.0,22.0,16.0,19.0,-0.5035398717590776,-0.12268009453346777,0.09494835114878383,0.08088081955787989,-0.6100645855294418,-0.4306025285113991,-0.4877502775343686,-0.23517120051775084,-0.4192995011861499,-0.2066239556401705,-0.001978539461992793,-0.01573114462313841,-0.40527979539451126,-0.05191359597849757,-0.16317860149412822,-0.1225314946429375,-0.591486480559153,-0.25036456933294293,-0.1605640965185901,-0.15842676283419116,-0.6871153590878493,-0.3260064758852756,-0.3900414648560328,-0.47906484602056487,-0.5553281636455959,-0.263731079756171,-0.45190580629271443,-0.36564926064019576,-0.3661249360218061,-0.4981484191023114,0.03097525986484886,-0.1461788054028114,2
7.4,11.7,3.225,3.2,10.25,17.6,6.875,9.35,472.0,759.0,206.0,175.0,613.0,1174.0,394.0,592.0,19.0,16.0,13.0,14.0,16.0,14.0,14.0,15.0,-0.32129685967181704,-0.09146907229989516,-0.016996439204501168,-0.281226575653077,-0.40910477345662855,-0.022396620613625323,-0.30633996385558593,-0.3283185347902159,-0.6373308982116914,-0.39052527756107586,-0.2967408938402927,-0.1585682814036946,-0.35487195517115977,-0.4525661578817253,-0.5303873354490704,-0.515013814904004,-0.3506263653030515,-0.11061871267194803,-0.07539442573439512,-0.327240704107049,-0.29507353290285776,-0.12238845236827656,-0.24828574959442165,-0.27125240907732323,-0.1936539349380789,0.015361476236907286,-0.32560688524257,-0.2145840898576673,-0.3305614651261524,-0.04833589524997842,-0.28004872431503924,-0.2728396842424389,2
7.875,9.3,3.075,3.125,8.475,16.675,7.275,10.75,511.0,570.0,197.0,190.0,571.0,938.0,428.0,717.0,15.0,15.0,18.0,17.0,20.0,16.0,14.0,18.0,-0.3987728869070777,-0.23224760660954125,-0.20938632409114405,-0.32421549265041066,-0.45251009472444365,-0.45859613440436237,-0.39645267595065525,-0.09902962197249457,-0.6246626204658705,-0.6409897744601151,-0.4915426935320559,-0.3349507428858313,-0.4811708538918895,-0.34624308235700463,-0.25483597166170974,-0.2481873314660073,-0.6187596426862715,-0.426289287743045,-0.03224373157152207,0.06671910302645889,-0.19782959182236937,-0.32279315068219216,-0.05998823465827498,-0.15010095062407294,-0.1341233048357769,-0.02533439531232038,-0.34326678297951135,-0.0008740369746441605,-0.1998781955581549,0.19900393542184203,0.10497202492384684,-0.06008440555662561,2
8.35,11.125,3.975,3.375,9.0,16.0,6.125,9.975,546.0,697.0,254.0,200.0,610.0,1116.0,305.0,638.0,19.0,18.0,16.0,13.0,20.0,21.0,15.0,17.0,-0.2885641674756623,-0.16176763249500545,-0.014808507485452147,-0.20101567603140413,-0.5263076131135448,-0.3417446428380059,-0.3866445555974325,-0.4241341433031332,-0.41087370567444864,-0.16292486550897223,-0.28665331820061407,-0.2596959996311293,-0.31785489429556485,-0.4214571019389692,-0.30853179688103305,-0.4146391979419458,-0.5670160915481022,-0.4703491891763393,-0.20718407762713248,-0.4763706874775869,-0.33925725244210747,-0.4401349170059237,-0.06372358402115767,-0.5055241185604787,-0.04108765761920217,-0.21763790630099886,-0.12858670073083525,-0.0769907642356167,-0.47186552388008945,-0.18224325911785383,-0.0779029645420051,-0.12410994823578418,2
7.425,9.975,4.775,3.4,10.225,18.45,6.375,11.4,427.0,651.0,327.0,201.0,677.0,1283.0,379.0,742.0,15.0,19.0,20.0,13.0,20.0,19.0,15.0,17.0,-0.12669774266884057,-0.05763122957973904,0.14075778998639144,-0.11721795372178011,-0.45730425522418955,-0.18082990749592043,0.08333617203213478,0.01536622423668646,-0.5425206568223906,-0.22012276374990725,-0.3577102980496239,-0.20414611074055652,-0.2562406308753608,-0.4914032850168394,-0.31638284668932387,-0.4787477186689358,-0.36338525873360344,0.04159209818056057,-0.14615248965032573,-0.130093978987357,-0.48242279787731446,-0.21256034255965484,-0.2689775286210152,-0.23562896900592734,-0.05651945731287151,0.1807108554508912,-0.22158182899378778,-0.006257993419628471,-0.3790022838461039,-0.1725710509510303,-0.06704645060769639,-0.26376997539860075,2
7.4,10.2,4.1,3.375,9.425,15.95,7.65,10.6,476.0,659.0,294.0,203.0,599.0,962.0,443.0,638.0,22.0,19.0,16.0,15.0,17.0,16.0,18.0,16.0,-0.3213338730061698,-0.15148428252377152,-0.006283715028776832,-0.18486735249511374,-0.48884725116216976,0.0917898296033177,0.12115569659685732,-0.01696513889656353,-0.5374217114877834,-0.10214676412831916,-0.24966674309434397,-0.25004370000182496,-0.3495487964170375,-0.11673460917687173,-0.40409544671284414,-0.4379690422042909,-0.3552869317333683,-0.18672544239086972,-0.31533713226105436,-0.16443068524494464,-0.229657449493234,-0.09061974009590801,-0.38340494980324713,-0.2226466258924732,-0.1439865214721386,0.1220307057506394,-0.19457832715295656,-0.10142789973018232,-0.21325509180730093,-0.07759534184213895,0.09913847615837112,-0.18884451409208028,2
5.55,10.5,3.025,3.0,11.775,17.875,6.225,8.175,368.0,655.0,179.0,166.0,758.0,1086.0,371.0,541.0,17.0,16.0,19.0,12.0,18.0,16.0,17.0,13.0,-0.48199037374099946,-0.471497580237987,-0.12718154263387516,-0.3121964207468789,-0.32504346187509664,-0.18528584582304186,0.019737945442377655,-0.014915150275175435,-0.3501142448049747,-0.25455999798296397,-0.4393402084181269,-0.3960173263239559,-0.2666437885258777,-0.059407603500993285,-0.23975174456197026,-0.18757201092041664,-0.5367764667005489,-0.10235797500310805,-0.07868346148977841,-0.2653988737080709,-0.29886684618463244,-0.3046292950273703,-0.17329108630486997,-0.2704243661984394,-0.4890480514907646,-0.3739406195731029,-0.27112741040089444,-0.16053826108229252,-0.20572595492577547,-0.1375600100209769,-0.3825019095552744,-0.13605518607948433,2
6.125,12.275,3.45,2.85,13.725,17.875,6.6,11.975,392.0,914.0,204.0,173.0,918.0,1175.0,392.0,803.0,16.0,24.0,15.0,17.0,21.0,23.0,16.0,16.0,-0.22819430384768175,0.34361859113084137,-0.1256012767597862,-0.2146870310260778,-0.8855416489248497,-0.5866628436819634,-0.6532038955790579,-0.3275072383983806,-0.4074465336471347,-0.2107102290733765,-0.521212391773303,-0.34393388339023184,-0.24244127384995465,-0.13699134352516673,-0.17512632039915954,-0.17957009537608168,-0.5951333080065,-0.41233310728636036,-0.25485001661858325,-0.23105675718919627,-0.36269068610430494,-0.4338006308490505,-0.15744388231340883,-0.40471355543334564,-0.4447389202035156,-0.22236457996075445,-0.16249722899863567,-0.04285765502069846,-0.3475341123281039,-0.07836126816085023,-0.23470941315320631,-0.15256422170727957,2
10.25,12.65,4.275,3.225,14.35,18.125,7.775,9.9,640.0,885.0,251.0,191.0,1031.0,1207.0,466.0,627.0,19.0,18.0,14.0,16.0,21.0,22.0,18.0,17.0,-0.07269852818346896,-0.04939235502546108,0.08148207644603823,-0.4476333226527194,-0.4053885609072456,-0.09327557690543335,0.2012365122805014,-0.13241050401310825,-0.3769090123878792,-0.43292939218814486,-0.34273359067927,-0.09979346910162955,-0.3710726074413479,-0.2886183323072617,-0.28665800354781756,-0.17030732533763004,-0.8630920933358888,-0.6256247868425271,-0.4061076605445823,-0.27376789878255053,-0.4929070914482892,-0.29026433808646385,-0.08175609583984006,-0.10465313779760203,-0.37199940355691963,-0.0774523822789704,-0.22806700652744963,0.03326581528125176,-0.22936206760740285,-0.07954505662321373,-0.2678870850588505,-0.20517664793362136,2
17.125,19.725,4.725,5.075,18.475,28.275,8.975,13.55,1204.0,1377.0,266.0,296.0,1318.0,1929.0,599.0,872.0,23.0,20.0,11.0,12.0,22.0,22.0,18.0,20.0,-0.49571608221944374,-0.16471773278147953,-0.20641838440827126,-0.39861189120363105,-0.6243425936966392,-0.23106030204826633,-0.06331832727384545,-0.2072184346689395,-0.13851583607438808,-0.1401949929309787,-0.19860802111402112,-0.048326438175922505,-0.3944020946301663,-0.44523959686058207,-0.3848802548923248,-0.47122915839551,-1.053990657500929,-0.5503972278517933,0.044343415899037494,0.12481488755135767,-0.6022663554353999,0.07384565764532167,0.3141788899046884,0.14144770167929635,-0.5871971643120781,-0.2701085916140029,0.07728382058991373,-0.24840708804181266,-0.3108671306990754,0.03013705681932807,-0.22218788966551772,-0.494064841381397,2
12.075,12.95,4.15,4.5,15.65,28.675,7.95,12.4,765.0,861.0,230.0,278.0,1075.0,1915.0,500.0,798.0,16.0,18.0,13.0,20.0,15.0,21.0,17.0,19.0,-0.5125236831237616,-0.46809345969912036,-0.10258068425375937,-0.24006887916702024,-0.4560162338736024,-0.6411237746664871,-0.31870448194890605,-0.21839498916501257,-0.27698018142301006,-0.3441527052199125,-0.12338055655948803,0.005130574994829314,-0.3189581714867164,-0.2605303827908983,-0.47971851171518565,-0.10029953506847701,-0.6848937332442907,-0.600009958585286,-0.40921037073601646,-0.22909898482005583,-0.38517168388130396,-0.010454646387819304,-0.20471859012967994,-0.03542714325786104,-0.4757897817896119,-0.1811036000669873,-0.27689695199553616,-0.3826998957061071,-0.32505061946076513,-0.1473150562171514,-0.13769556766225471,-0.39981772764657036,2
9.625,15.025,4.45,4.175,14.3,18.05,6.175,10.725,588.0,1024.0,273.0,231.0,867.0,1088.0,348.0,741.0,17.0,18.0,18.0,12.0,16.0,18.0,15.0,11.0,-0.27999470462961235,-0.3334022485647984,-0.19297893630698515,-0.24094806653106476,-0.49863381744481705,-0.2289795260473077,-0.24033355708088805,-0.09098922009791191,-0.24957522567302184,-0.0043446863162244125,-0.18383082146496252,-0.17208061861527496,-0.42440579259852146,-0.5553663559265467,-0.46285814407289994,-0.23244421910165833,-0.30693277489343623,-0.5036232800790889,-0.1644240962543986,-0.4837486632631275,-0.2725937760261301,-0.14034049463987028,-0.20846470125320457,-0.08296254185451528,-0.18570205492439867,0.1203999898429777,-9.649745631032356e-05,-0.3911614790801402,-0.7714410822460213,-0.551254456786059,-0.28727491701562763,-0.12545147375945354,2
12.4,14.225,4.925,4.675,16.55,20.675,7.025,13.7,744.0,1002.0,295.0,299.0,903.0,1222.0,449.0,891.0,17.0,18.0,15.0,15.0,15.0,14.0,15.0,13.0,-0.3505899197044861,-0.26406977253494673,-0.023025547960708367,-0.23972009101256242,-0.553417807064572,-0.35962953202625464,-0.43413361310369897,-0.070917932722688,-0.22748163364002516,-0.2578861627152383,-0.03168823095008182,0.010959034601095624,-0.4893525193699586,-0.380264209231914,-0.5067675045664785,-0.31387832342001737,-0.18959534116099785,-0.35107061054056415,-0.19940129893571273,-0.20501982951422182,-0.3844777470104391,-0.17750980699815516,-0.3262696245771366,-0.18694844650063278,-0.6048416182249282,-0.2964735504509005,-0.4145719379590279,-0.5487624927944312,-0.5030863145952594,-0.3152911798357385,-0.29239507480491145,-0.3155851024286259,2
8.45,10.4,3.85,3.275,10.875,16.4,5.025,12.475,496.0,718.0,274.0,185.0,558.0,984.0,300.0,706.0,16.0,23.0,17.0,13.0,13.0,20.0,17.0,11.0,-0.17638210010518324,0.05535091992942268,-0.04921479112050107,-0.3788282908686689,-0.7081997234766932,-0.4060897225980568,-0.2921035074063744,0.007686585421944438,-0.4027552479147689,-0.2299905356341965,0.29620630115682856,0.02055156820915922,-0.4078660319627345,-0.32957277207059127,-0.4441105121671298,-0.38522054384687143,-0.06752520431416291,-0.2518036215276814,-0.09035783755164806,-0.1252383771729849,-0.26236309807677005,-0.12032816037163045,-0.07067047299688767,0.0399662640978822,-0.17735901675785928,-0.11946132119303825,-0.04956075715836407,-0.0646398575212803,-0.055994751279781575,-0.08501480865581436,-0.12152930026801954,-0.1568572539044067,2
9.875,14.25,4.125,3.725,9.925,15.95,8.225,12.55,680.0,975.0,283.0,237.0,655.0,1058.0,582.0,706.0,25.0,20.0,19.0,13.0,17.0,17.0,22.0,20.0,-0.45447876202366316,0.11602388928981902,-0.16440853057013657,-0.4331500736718193,-0.6523308597849261,-0.24915755030474057,-0.17781842075245197,-0.23112107759710268,-0.3807530176296662,-0.10110900619375882,-0.4024617696444131,-0.046414580823980686,-0.40566946754331035,-0.17181662252378369,-0.1571725374665692,-0.4311631998352426,-0.24050449326299828,-0.046708504305054764,0.04248564573730926,-0.0855895379768202,-0.40704177452059603,-0.485925197226371,0.024672358182484692,-0.1427330988513107,-0.6236345505391307,-0.3262349627014826,-0.3292139171990647,-0.5095663948087464,-0.15532496717930053,-0.1751003075878282,-0.10995085685203859,-0.28263539643859975,2
10.15,13.55,4.925,4.375,10.2,17.95,6.425,12.825,626.0,849.0,321.0,289.0,717.0,1163.0,428.0,851.0,17.0,20.0,21.0,19.0,21.0,17.0,18.0,22.0,-0.22000926629974693,-0.08813814188773204,-0.49898207440631875,-0.27973617054207545,-0.3033414739945449,-0.0458438619168238,-0.05362698198067918,-0.24697921648934604,-0.41036610251285244,0.07172372987393937,-0.06198487634384345,-0.21412714799748292,-0.5680311342374402,-0.37232841091156565,-0.5200998060844291,-0.20868117141477852,-0.3857919441368902,-0.041976986156669796,-0.15791648358973748,-0.1261064029337513,-0.4860234523760283,-0.43518525300366806,-0.13908731833225982,-0.16698406687914694,-0.323033831295405,-0.25947585870675893,0.05051297789086073,-0.32163170695702487,-0.48762335206124446,0.20591270814346538,-0.04721956250245632,-0.17308501005852187,2
9.55,11.45,4.675,3.625,12.775,22.825,6.975,11.075,665.0,751.0,294.0,234.0,667.0,1416.0,400.0,622.0,18.0,15.0,20.0,16.0,16.0,16.0,15.0,15.0,-0.7647972828690698,-0.46451097407828407,-0.30487738027999894,-0.2873074572833704,-0.6082770844213248,-0.5332401000023107,-0.4243282504554464,-0.4057532430445688,-0.27514962221978234,0.2146399272344314,-0.43141812294211507,-0.33135380199669145,-0.26905355053281615,0.006720267648786453,-0.27720497896043705,-0.07191588752478886,-0.1559090522068386,-0.17353044069027873,0.031232409694733457,-0.04095177191394879,-0.5369405648865515,-0.3756557552460361,-0.3187273449980434,-0.31801390306195954,-0.20468087861634923,-0.31655339385402004,-0.0911768978147524,-0.3466289900581419,-0.5542406657421127,-0.498546173007055,-0.5663208199708976,-0.5183342787557845,2
9.55,16.15,3.725,3.425,11.15,20.55,6.5,11.65,627.0,952.0,234.0,193.0,642.0,1165.0,387.0,653.0,18.0,16.0,17.0,15.0,14.0,15.0,14.0,14.0,-0.4951155326482513,-0.3982283880249667,-0.14800751124146747,-0.2841266160672631,-0.3438669351400176,-0.34481212053996413,-0.06315505741539558,-0.23975212774457033,-0.2704443654198166,-0.010924587369566275,-0.17044612336423273,-0.33182757550718917,-0.1355311435283995,-0.2934663949842483,0.05061928873144242,-0.26457075468176955,-0.21313422110516717,-0.43467913561686417,0.14268843971888004,-0.18633015883012524,-0.18739067749882352,-0.3246499529890418,-0.17244122738422957,-0.275562374297943,-0.0784796112041606,0.05020390840474094,-0.0895051894115357,-0.29014399655988443,-0.1714085365514004,-0.150037463801758,-0.0305729079867456,-0.11555982226825331,2
10.7,9.95,4.55,4.075,10.8,12.75,6.55,12.575,707.0,581.0,291.0,229.0,713.0,720.0,434.0,837.0,20.0,17.0,18.0,14.0,16.0,17.0,22.0,18.0,-0.6145420576803593,-0.3850909783409583,-0.2096078307350454,-0.2340214972284367,-0.05980651824336879,-0.03737761070024767,0.0358144727839481,-0.3903831746412222,-0.551302389553939,-0.1323553819181842,-0.4436937539155227,-0.374082383361818,-0.1878298144681615,-0.09151779184415884,-0.3110945397953309,-0.25642615217472436,-0.2812416200811312,-0.27013112513058196,0.13040680406534597,-0.180076065159991,-0.07330450061276096,-0.20285728786105622,-0.1531477258902605,-0.289973368346348,-0.30991489428250385,0.09608320612526072,-0.12948934122009642,-0.40716284263498903,-0.29481544994273573,-0.06910805440173957,-0.009153614996657955,-0.4075812642271657,2
12.35,9.925,4.45,3.85,11.25,19.825,5.275,14.5,717.0,689.0,273.0,201.0,759.0,1224.0,337.0,969.0,16.0,19.0,16.0,14.0,23.0,21.0,19.0,14.0,-0.34606212505307854,-0.12474949498259148,-0.23677914696462105,-0.44425405852029565,-0.3296746297468821,-0.12810580115080525,-0.1616173040494897,-0.13180287193393864,-0.4158992312706757,-0.21762015594359277,-0.08137005421312954,-0.08592246059675046,-0.2522142167844322,-0.39105039578468637,-0.3362042090178029,-0.25852203382966715,-0.5578259987697985,-0.13542064575930762,-0.5240806213496221,-0.4830321799417888,-0.38293492484857083,-0.07681716259490999,-0.2508160671885646,-0.5120102100639932,-0.255312836431678,0.02673519752708251,-0.06568009986017216,-0.3721739938468176,-0.4824542644060427,-0.1578986819186176,-0.39244725320232676,-0.4486876339842568,2
10.075,10.825,3.675,4.4,13.625,19.6,6.05,12.65,606.0,761.0,210.0,244.0,942.0,1334.0,373.0,809.0,16.0,16.0,13.0,15.0,20.0,21.0,17.0,12.0,-0.30804010800858794,-0.053587207413286264,-0.24204715824185702,-0.35187088644021325,-0.44637152618464043,-0.26594023889935586,-0.25084495377733207,-0.26809505047559756,-0.15640895947700323,-0.08118421228528998,-0.39053314219806073,-0.1628713546550893,-0.31208933100500214,-0.32176254384321773,-0.3876903850712854,-0.47050671396604565,-0.49009154582805986,-0.04739238725115639,-0.30086502988381497,-0.4266623208292869,-0.3951195418648604,-0.1424208663226935,-0.05784875310073369,-0.3151725065735362,-0.29044879305695026,-0.21540139958314616,-0.22832050576321186,-0.058068559078440926,-0.3914584926382162,-0.3092426670435733,-0.05989788409429417,0.02259565933849653,2
8.8,13.15,3.375,3.65,11.8,16.35,6.925,13.25,551.0,836.0,188.0,177.0,731.0,1093.0,450.0,789.0,17.0,17.0,13.0,9.0,16.0,17.0,19.0,15.0,-0.46375470656078804,-0.4325433113851887,-0.09723174318664336,-0.27177417980581053,-0.3553631877371195,-0.30761094661583877,-0.06594682081625085,-0.27739136025273525,-0.10257080687739599,-0.4909833029220039,0.022999857086379225,-0.1441649399814668,-0.049486425927056155,-0.3923704723710359,-0.248058588864925,-0.3638098085569261,-0.3544870299167429,-0.3745521868054556,-0.09003915550961675,-0.12500099392100933,-0.419846938100902,-0.16957204053850394,-0.023995591402262595,-0.20081460410033197,-0.4998663914679771,-0.44056543436646667,-0.2876616855791488,-0.2975907003996553,-0.21307724320287674,-0.36756834341829603,-0.14181824597848522,0.047728847919272954,2
11.275,14.95,3.95,3.75,11.6,17.65,6.55,12.775,735.0,952.0,261.0,182.0,720.0,1138.0,427.0,744.0,17.0,19.0,18.0,15.0,21.0,20.0,21.0,14.0,-0.4380630834810212,-0.03281971880590226,0.20936048012096195,-0.12490704374213513,-0.426770000372532,-0.21833925805936685,0.03177981292971066,-0.14334718954802772,-0.39425502383073396,-0.21790431450198472,-0.1510582740174097,-0.16561842867287935,-0.059637464675832266,-0.39095296622049963,-0.12328322723310997,-0.2646983751867321,-0.3672301581842827,-0.24333964946477651,-0.24227895208620723,-0.5270864145424556,-0.3689535467915558,-0.019057305099048148,0.0032759102131998384,-0.11498870620650795,-0.5224182644687233,-0.4067710281356784,-0.12535518311623495,-0.28281337488858943,-0.21837659896619666,-0.3130717052936603,-0.17406073378478953,-0.28714582595596544,2
12.2,14.475,4.45,4.25,13.35,16.05,8.575,10.825,867.0,948.0,256.0,254.0,839.0,905.0,545.0,728.0,23.0,17.0,15.0,18.0,23.0,14.0,17.0,19.0,-0.5592982107266461,-0.23153025692916432,-0.05703443047744692,-0.31614070028051305,-0.37618624128260136,-0.23900869730497268,-0.19424075505265412,-0.386929978020036,-0.29940864496287967,-0.25194353257932156,-0.4881260422127563,-0.2762178580647743,-0.35076279382209646,-0.4417720811795779,-0.37575187241948654,-0.17281294847916115,-0.495996801526298,-0.46476452082690045,-0.25890685441851374,-0.4301500180689742,-0.1557877150207552,-0.22043405348110454,-0.1315312748653641,-0.3322340078446706,-0.45167214404148887,-0.3820364529176791,-0.4286074560735944,-0.24066493051178062,-0.6134477095973643,-0.3923897386871296,-0.5153165198486194,-0.35548754595611476,2
6.475,11.575,4.725,4.35,12.625,23.725,7.15,8.825,406.0,724.0,296.0,273.0,806.0,1627.0,491.0,628.0,14.0,21.0,16.0,14.0,19.0,21.0,19.0,19.0,-0.2785493165080509,-0.286655020556421,-0.0028953406455503677,-0.23714572865292913,-0.37009553672131523,-0.46719461598328865,-0.31416093091025943,-0.3697375057493829,-0.42788465151410343,-0.4872079241072068,-0.26340366732491144,-0.4928311385688846,-0.24913238611630506,-0.3471792638022156,-0.036718417355293055,-0.3717312584527982,-0.498781813472521,-0.12226546045234754,0.31636096343367465,0.008871994755818891,-0.5889023057163789,-0.12641717933193625,-0.17221177457023762,-0.27467022093309973,-0.6523253400833258,0.06177552980225712,0.2072959611850495,-0.02624702843217755,-0.6505667602937626,-0.22477606198895014,0.14985834032433007,0.08745765527396264,2
8.1,8.95,5.775,6.025,15.175,21.75,7.475,10.65,531.0,614.0,344.0,365.0,1045.0,1422.0,445.0,772.0,15.0,17.0,15.0,16.0,22.0,16.0,14.0,18.0,-0.3734111208045495,-0.0902880228144756,-0.19585162479622528,-0.17586274282598993,-0.5273963052249427,-0.4365100341307096,-0.2969207311286457,-0.2148343314893739,-0.38623571011924107,-0.36999343205800445,-0.1673957105392408,-0.23579024532077264,-0.2528980660919718,-0.075691961486387,-0.12759572894482343,-0.2338386378814498,-0.6636449334079552,-0.3115508878278132,-0.12039538234479998,-0.2383568539517056,-0.45780717806386917,-0.033155823931547486,-0.2897510503967064,-0.30194779339377575,-0.4924664379737201,-0.32484253970048615,-0.4486909869066406,-0.24949297262689207,-0.5288573008330121,-0.26259985523750184,-0.25129181028824227,0.06492299307129715,2
7.35,7.75,3.975,4.25,12.85,18.3,6.6,10.25,442.0,477.0,226.0,237.0,854.0,1174.0,337.0,664.0,17.0,14.0,13.0,14.0,16.0,18.0,14.0,13.0,-0.3900546450906723,-0.3299345060694368,-0.25644189560428576,-0.2949283819374596,-0.3513047360251878,-0.3380750441083317,-0.14746214909125238,-0.034038010865355225,-0.2735546345712668,-0.2448914436223449,-0.23042411163695414,-0.30650108510063656,-0.09274102019319515,-0.14749378988687367,-0.410974885601951,-0.21497469958579005,-0.6178451211686594,-0.2634539266181022,-0.07268170475082929,-0.14835726148691003,-0.4166320801709247,0.04489309729014429,-0.1263747062492507,-0.2333249536945706,-0.3158902620165975,-0.30786398834787465,-0.4359295128343651,-0.25852552595919737,-0.6655294348107944,-0.5069875930286849,-0.6107819963581791,-0.3274419623336937,2
8.525,8.9,3.4,4.475,13.1,23.55,6.15,11.6,539.0,578.0,179.0,276.0,894.0,1483.0,376.0,769.0,17.0,19.0,14.0,15.0,21.0,17.0,13.0,19.0,-0.6179370292928963,-0.5856845085917982,-0.21107078241809155,-0.21659609081692133,-0.39667579592411467,-0.2098848761693198,-0.3566768686345352,-0.05867530344811612,-0.0845740255492565,-0.13133775729349068,-0.24022575155582052,0.036215756361729204,-0.2581384745237328,-0.31454121703216614,-0.1916126817108837,-0.20783486953058977,-0.5162647734259184,-0.152644716556026,0.032404694915288995,-0.20470867509293045,-0.3588647539843597,0.04110649738539664,-0.06896528869645446,-0.31649292324123834,-0.22819478111114397,-0.21746429084114297,-0.16370811723193915,-0.20326961425562962,-0.6762134197254798,-0.20128014418020646,-0.19830481050881643,-0.16472667351376127,2
6.9,7.15,3.25,3.525,9.825,17.675,6.025,12.125,410.0,435.0,195.0,245.0,589.0,1007.0,368.0,865.0,18.0,17.0,15.0,19.0,15.0,15.0,17.0,17.0,-0.4771891683703212,-0.19318714918369087,-0.20666171027288902,-0.22567290988071817,-0.21129155655537774,-0.15999379208269907,-0.26552048344538126,-0.18513318767652465,-0.4789636719078163,-0.3976204092520843,-0.4785278597270049,-0.5098538770097722,-0.6355493638881616,-0.28011548966604477,0.1695743528434815,0.010829353278293421,-0.07149356428033003,0.012668859296199628,0.01569393455390488,-0.17213105293223854,-0.18365443832137945,0.06199973255512781,0.215496282445773,-0.218582870453523,-0.18474289531980567,-0.17209474535475278,-0.0018712828267074969,-0.3055487839885294,-0.6455329601509988,-0.1128843220487014,-0.2912673748375294,-0.3724356445225478,2
5.675,8.05,3.575,3.925,12.525,16.65,5.6,10.325,354.0,474.0,210.0,215.0,796.0,985.0,335.0,641.0,12.0,16.0,15.0,13.0,17.0,17.0,18.0,14.0,-0.2426705991135669,-0.2492446761522989,-0.043879172300944715,-0.27415444136386685,-0.10917050041071642,-0.18501104184892916,-0.07436683603785689,-0.0979170251214962,-0.27700117813846326,-0.28280092698961296,-0.36434858405183457,-0.18655140631525605,-0.06304608693097492,-0.5948427808685792,-0.09273694054015874,-0.31087402772056555,-0.5536490386704973,-0.28768504796709043,-0.15079431611455343,-0.07868762839228637,-0.4745104046168678,-0.5011042551190137,-0.22495635873442507,-0.1707754345828695,-0.19411247970278558,-0.3207831965488967,0.09205513201874395,-0.22913247266038878,-0.5704460877979709,-0.43745043730648847,-0.4454897976512091,-0.12489923015685007,2
5.375,8.625,3.85,4.0,11.925,13.3,4.325,10.1,351.0,537.0,250.0,242.0,785.0,789.0,290.0,573.0,16.0,18.0,17.0,18.0,20.0,15.0,18.0,13.0,-0.4418902319428112,-0.29243025207065515,-0.12263761545271641,-0.11698089149074786,-0.6740307056190603,-0.5202327168879678,-0.40803465475999606,-0.21433258914105607,-0.3733527950417158,-0.2117770768708179,-0.15070216747410398,-0.2651485807358869,-0.36178911460073904,-0.148989641561844,-0.228965756251051,-0.3391866641531994,-0.6842240538048233,-0.3204745907032656,-0.18870259694159977,-0.014714744402827029,-0.36035437027672523,-0.26179864916119433,-0.3894185367958499,-0.23860164966596237,-0.5918898259064599,-0.2567658834633533,-0.03874551852192471,-0.11601126188094313,-0.04824778927320211,-0.1898301458960472,-0.016556182855337172,0.057284836938984986,2
5.0,7.375,3.05,3.425,13.275,17.025,4.1,8.3,326.0,421.0,169.0,231.0,936.0,990.0,243.0,491.0,21.0,16.0,16.0,22.0,22.0,17.0,15.0,14.0,-0.6101285974827078,-0.4972913744648421,-0.31863982882739794,-0.17012255235657986,-0.20431608955870606,-0.4603504858109902,-0.1697990015368052,-0.4211260559468055,-0.19185756824591838,-0.06946126163468958,-0.18347938153012758,-0.14119450044702916,-0.5470246665304362,0.17211633154641573,0.1671351434830329,0.03468544091610039,-0.6046855324401359,-0.09580577252171403,-0.016022287746392604,-0.07381811467410725,-0.1240468232271971,-0.43087556604838345,-0.0158803109556387,-0.008830486815978738,-0.34792995845686137,-0.5214444601148194,-0.1451911071423979,-0.26199283117407207,-0.36980327184605366,-0.07961741662650754,0.07740071457197288,-0.22130633383038276,2
4.275,5.675,3.55,3.4,11.875,18.9,5.1,9.95,243.0,313.0,185.0,198.0,838.0,1244.0,307.0,582.0,9.0,13.0,11.0,15.0,22.0,17.0,15.0,19.0,-0.14258349527683414,-0.2631333552717027,-0.21345246967208487,-0.2038917279134414,-0.03978438836251023,-0.24846935196271583,-0.21282616502262214,-0.10861557662722514,-0.4222290760025814,-0.5112996263115195,-0.5810287904250179,-0.37911244305974534,-0.47793770987580525,-0.43565021381238533,-0.20212044756421962,-0.3327040850097176,-0.7506392955825678,-0.3658721609101823,-0.12449895846926158,0.009114724231185803,-0.5376485422210157,-0.4182889271998096,-0.05438876525281782,-0.18373252695078754,-0.5468075789133069,-0.27963665675130506,0.14772382103771411,-0.046248968833929226,-0.14920945193532972,0.16925943142114422,-0.20722182761060148,-0.3128881472589832,2
5.15,8.575,4.25,3.6,13.075,13.8,3.7,9.9,320.0,607.0,263.0,206.0,902.0,935.0,212.0,650.0,15.0,23.0,19.0,16.0,20.0,21.0,12.0,20.0,-0.28482388193051417,0.09826110191644052,-0.09042986921339731,-0.21164355795605333,-0.5483917188797273,-0.37028079217096316,-0.34979426767364824,-0.21698859834553144,-0.5999182586422342,-0.5485330441443222,-0.4127128924759558,-0.24916147399277008,-0.23949838512144261,-0.0020770039388187745,-0.26126224159281003,-0.23914891103375513,-0.5228771000265425,-0.06676157782945312,-0.013987587294562256,-0.23277915213545644,-0.29993306120817986,-0.05269140505938747,-0.004265187285166942,-0.11750024778616015,-0.014189553930432175,0.13108874090217867,-0.06290945937321281,0.04917912478991964,-0.26760182391068676,-0.12002501811290464,-0.039238555471704774,-0.18041953236857494,2
5.875,8.8,2.525,3.35,9.575,14.125,4.675,11.7,389.0,623.0,152.0,238.0,556.0,1023.0,332.0,729.0,18.0,18.0,14.0,19.0,19.0,19.0,22.0,14.0,-0.518996719712179,-0.1659303845985716,0.22221235283911794,0.01753588210659387,-0.7638038183814151,-0.5802655097127736,-0.6277170333677994,-0.35259448812744043,-0.3270057460926419,-0.20012847051296964,-0.2843841346444247,-0.08798104675225613,-0.5335055996794844,-0.2506320183445932,-0.0646208196960198,-0.20960641545138384,-0.3005948544872329,-0.20814681704327617,-0.3040559193883969,-0.27854219354097015,-0.5989043627066535,-0.29734711096603944,-0.3040148529176008,-0.3910581352966747,-0.5686684146466453,-0.06847447760771999,-0.01173490555039755,-0.22748708163606268,-0.34101327623469646,-0.1801580829956982,-0.010099959910639661,-0.20605428312135807,2
6.1,7.625,3.4,4.275,8.15,14.4,5.275,8.625,424.0,514.0,201.0,246.0,451.0,926.0,296.0,456.0,21.0,17.0,14.0,12.0,16.0,17.0,14.0,10.0,-0.48058536510605715,-0.005031955157715394,-0.052407376621085244,-0.2550912056931186,-0.4233188397885028,-0.08287487777638664,-0.1946591510785317,-0.12697538544025416,-0.24079967749490375,-0.20529036969570316,-0.26816833919813665,-0.2149946854978962,-0.09953339261994316,-0.29802680101257534,-0.11606368958716351,-0.20157468758403121,-0.07243691399040718,-0.027746473616687424,-0.1027561741484735,-0.07249172338115606,-0.40611787361128404,-0.370981754684264,-0.29759478980868354,-0.39372127735609513,-0.23226148963646906,-0.43124396034648,-0.24896219130628616,-0.45490895821853095,-0.08370497584793272,0.23621922629479905,-0.08006302344851134,-0.1111451171223274,2
11.1,19.875,6.575,5.125,15.575,26.425,5.85,9.75,785.0,1243.0,436.0,337.0,960.0,1671.0,308.0,621.0,20.0,18.0,18.0,19.0,18.0,17.0,18.0,14.0,-0.4349995719404796,-0.14724608055650196,-0.10654789446847875,0.16669479910296367,-0.3234118095738126,-0.07118399086985953,-0.44159059706926784,-0.3131640728978601,-0.4370514992655595,-0.16304422440339245,0.059804865189417536,-0.2547276699360557,-0.5705367575469328,-0.8653330494757462,-0.4963616828331555,-0.683233175696825,-0.08299863019204493,-0.3606277975854314,0.20214360401611592,-0.2519320185268683,-0.4294633477850618,-0.6436154688807956,-0.21690417411634835,-0.46117534038713015,-0.14435436497928697,-0.42162640040810767,-0.11358239971598479,-0.4090604656547001,-0.20709431385055083,0.0727256955744623,-0.16931093816806259,0.03298501111876034,2
13.325,22.45,7.725,5.85,21.475,29.925,6.775,10.525,915.0,1400.0,485.0,331.0,1479.0,1948.0,439.0,697.0,20.0,14.0,19.0,14.0,21.0,18.0,18.0,20.0,-0.3495484758373279,-0.2027715523473377,-0.11399853078970022,-0.20339192180052584,-0.19444218843236913,-0.19685693440891625,0.027928858018322535,-0.13813033094655489,-0.517605149533726,-0.36324535230083627,-0.11045951823004325,-0.04040387514534504,-0.220729801679571,-0.4137076663064954,-0.1678983247722042,-0.4687757579549523,-0.5482474052591859,-0.2772632374331776,-0.2380026968496202,-0.29504087802934925,-0.5743712896848047,-0.32230444807707803,-0.32740377329840914,-0.24839200661862323,-0.37226090150993435,-0.07863783843973145,-0.1137836448120339,-0.058760816575751405,-0.3868917677516544,-0.10189600886729328,-0.3370560009212491,-0.13216914772537125,2
17.575,22.25,7.775,4.55,16.125,23.075,6.15,11.25,1177.0,1388.0,510.0,292.0,1046.0,1415.0,428.0,682.0,20.0,15.0,23.0,15.0,15.0,18.0,19.0,15.0,-0.47755871788158527,-0.19708225141609131,-0.3084360055901606,-0.4903831267896279,-0.4272383880150646,-0.17629810803397958,-0.02730958892190299,-0.016384424003662027,-0.4468302333440747,-0.17135790028581896,-0.32586509943601744,-0.1695570052365062,-0.23176802461260876,-0.09338630153732269,-0.3139748892457271,-0.42693738795267405,-0.42020341462260674,-0.10816963334136667,-0.060107788079580844,-0.06310257344659399,-0.3305057481423623,0.15306750641535857,-0.38442544297618586,-0.5582761875039117,-0.31781528799464004,-0.11023485377021364,-0.12142462177136447,-0.3282887950803168,-0.36018677925928455,-0.040617596899780235,-0.16456672037729492,-0.17376473457342792,2
16.075,20.175,6.175,5.0,15.975,16.625,6.15,12.375,873.0,1220.0,420.0,284.0,1006.0,1025.0,380.0,843.0,15.0,15.0,19.0,13.0,17.0,17.0,12.0,19.0,-0.2795444165879309,-0.266130617217326,-0.20306704609991855,-0.4229835731980845,-0.4077863743530326,-0.37970817709470606,-0.25103135395142795,-0.1462921620806634,-0.6898258080871683,-0.7791286156554915,-0.48573089887020826,-0.560022270284363,-0.15758436228437697,-0.4066712313480352,-0.11740599827458936,-0.26046798623638534,-0.3336381512720293,-0.0275410485688118,0.08117736597706934,0.02956554061495896,-0.3994085875180415,-0.07185572187538337,-0.03367296064461083,-0.16242585947729196,-0.3256674386754912,-0.16699665579383358,-0.11673688822266211,-0.143802493215784,-0.6417875149595162,-0.33075881581632255,-0.30067946708148413,-0.3789039157109739,2
10.5,15.2,5.625,5.275,13.6,20.225,4.45,12.125,604.0,980.0,371.0,316.0,901.0,1330.0,297.0,755.0,18.0,22.0,19.0,14.0,25.0,17.0,17.0,16.0,-0.3490957138055345,-0.1707253949963814,-0.018433780305598797,-0.19595624802526543,-0.1771743541644081,-0.19767146338659394,-0.23395449529485102,-0.02327079602291634,-0.3938660416232836,-0.4844962819026928,-0.31166114472648865,-0.49648369366368167,-0.19249524203856602,-0.4921816895349252,-0.05904896377940902,-0.4754493103787167,-0.5908079281779909,-0.1800462059873031,-0.09668805874307557,0.055732686212130615,-0.4139342720494191,0.03462108037092283,0.0510778757532506,-0.13675354693958316,-0.5152816952246139,-0.13571553831405228,0.2632625105542414,0.11571550788519566,-0.6518499433754387,-0.36589375728303536,-0.5980819893967005,-0.4805786814988508,2
7.35,24.425,6.525,4.175,12.925,20.1,4.2,8.275,494.0,1661.0,412.0,228.0,878.0,1288.0,265.0,460.0,20.0,17.0,15.0,12.0,20.0,17.0,12.0,19.0,-0.24652936212459245,0.08749502671793172,-0.04431769108663614,-0.03062028519177288,-0.3188826800380421,-0.05976444710942731,-0.19653212389824815,-0.2450224995296288,-0.42949593095443794,-0.21951972132834352,-0.19062746497552926,-0.4290334940007065,-0.16987510091702138,-0.0861689843781964,-0.3291800953791879,-0.4136189474742439,-0.8561940364783298,-0.4154850074963156,-0.13944923158977166,0.09201690789492101,-0.347712242199861,-0.14156027246646374,-0.3769137184380805,-0.019194834285033237,-0.20911895105129286,0.20511389451240422,-0.06898835719308771,-0.107305889863467,-0.3983672963481168,-0.4997880857171179,-0.5557054373060951,-0.23188966727756508,2
7.8,36.825,6.725,5.5,15.7,19.325,4.125,5.375,470.0,2571.0,409.0,343.0,1065.0,1159.0,257.0,368.0,12.0,19.0,13.0,17.0,16.0,13.0,17.0,16.0,-0.234725356795467,-0.127095638121299,-0.18741703926461084,-0.18125498384321004,-0.4489682189889438,-0.47843096215870035,-0.1779462830293358,-0.19540009317533014,-0.3291823510033659,-0.3844140678650422,-0.11014817695387591,-0.21751195663481462,-0.5851294515314087,-0.6005562677807792,-0.5944403837348929,-0.4867984707887206,-0.5750931571493056,-0.39128551210626294,-0.28186313573912,-0.032121444822527684,-0.22512480554156095,-0.4186501691142285,-0.1906662163934322,-0.26630800829139123,-0.19644074415740342,-0.30471327239427565,-0.10847611798838516,-0.4443679887881419,-0.31969404065469137,-0.08498446229515805,-0.13406309364765823,-0.2491328487232578,2
13.0,37.775,8.45,5.95,15.35,26.5,5.775,8.9,831.0,2740.0,515.0,358.0,1033.0,1627.0,352.0,629.0,17.0,23.0,17.0,15.0,20.0,16.0,17.0,23.0,-0.2501429565965334,-0.15396095416600444,0.09217819923446106,-0.07298768600869207,-0.5682944060661735,-0.030269334040060405,0.010725256002969542,-0.11450702076852705,-0.30394740656833896,-0.4693393189023388,-0.26789580109863104,-0.3620968273389015,-0.17830202967852857,-0.46405481160172196,-0.22722075388243615,-0.2722272931511762,-0.5530302100626676,-0.3464358880919937,-0.26659151143868814,-0.17185918968682454,-0.43568730612150147,-0.5322221761610575,-0.2833552294991831,-0.32440507824067105,-0.2589261755183477,-0.34505721913698933,-0.21174507620413668,-0.05950561663286988,-0.27287986008515114,0.46066495185282624,0.07679629257954006,-0.4282371057422987,2
8.8,25.775,8.1,5.675,14.0,20.0,4.325,8.7,565.0,1732.0,564.0,327.0,958.0,1222.0,281.0,578.0,17.0,17.0,19.0,16.0,19.0,15.0,20.0,17.0,-0.29241762167379065,0.14214734852033897,-0.0010766908028925987,-0.1565524951417039,-0.3894464100347669,-0.16918897048183593,-0.2898967742075258,-0.19550166475425645,-0.5002258526657919,-0.3786871396838362,-0.34355469323603066,-0.2736806527090292,-0.16185978955660427,-0.4665956771082777,-0.12803911466954945,-0.4698646246732669,-0.7827414694250115,-0.6101929545764601,-0.32132056859823455,-0.21823176344883685,-0.30335058570416756,-0.18912627871148732,0.12685362315005955,-0.10834546402705347,-0.4470613640940669,-0.31844446914664537,-0.12034331169806227,-0.08819246605596874,-0.3568191497900852,-0.035913544698766384,-0.030736216745092453,-0.2757715257976447,2
8.05,17.05,6.075,5.15,14.225,18.95,3.625,7.1,508.0,1079.0,392.0,294.0,888.0,1349.0,232.0,415.0,21.0,18.0,17.0,16.0,18.0,22.0,18.0,18.0,-0.3837715456528768,-0.16344151120816128,-0.3316627803434773,-0.11702584457913082,-0.3590003014239502,-0.0045691063278004256,-0.2121175617235884,-0.266860081184713,-0.3949429445234993,-0.07397090905671636,-0.09265618354368976,-0.22199096059535198,0.015776618594350818,-0.22118886706746552,0.03409843889968074,-0.3178924646837315,-0.43145012314206205,-0.5142181648628126,-0.1677692238667409,-0.19672073564832218,-0.41845910877631914,-0.13729571752523304,-0.3703993998439767,-0.1952977200509659,-0.4631956748563899,-0.4604483050793094,-0.40656025042617283,-0.052120216954455914,-0.15854529419928154,-0.010376403741733832,-0.02034661492831379,-0.30059114783264657,2
3.45,9.85,3.275,3.375,8.75,13.325,2.35,4.25,238.0,625.0,199.0,221.0,624.0,952.0,153.0,261.0,16.0,16.0,10.0,20.0,20.0,19.0,18.0,15.0,-0.5415596267761134,-0.34585394719487844,-0.3120867147469814,0.21701324176785916,-0.5383069679785857,-0.36919696365836147,-0.4741760501305469,-0.4247647609917574,-0.2562830305456658,-0.13969010693910225,-0.12279616646335177,-0.32055628610381137,-0.5163771725483866,-0.0733374103835586,0.04511313087160741,-0.09986972909956139,-0.5799430301447901,-0.0699486774887182,0.06497277163483593,0.12179502812721994,-0.8003780048425194,-0.3215731805824764,-0.11843768480512695,0.02993205240797012,-0.48342846746940027,-0.11160080813352037,-0.000977329340430796,-0.011986724634855896,-0.3124849525769319,-0.14782081122694107,-0.038835004806485496,-0.06548874014422702,2
5.075,14.35,4.625,4.725,10.975,16.0,4.15,6.45,322.0,959.0,287.0,299.0,738.0,1042.0,238.0,399.0,17.0,18.0,14.0,19.0,19.0,20.0,14.0,18.0,-0.08814740923108592,-0.14281696485818918,-0.26405385203668386,-0.007473995513810125,-0.6114118319762107,-0.24240576836582303,-0.028700531834730224,-0.21055606194874404,-0.19525734828633778,-0.32908126889439626,-0.1177683241503393,-0.3108684966511176,-0.5769922834543195,-0.45001006455238873,-0.1617197558835309,-0.2688110846074499,-0.49751702422836774,-0.31344569381669346,-0.5755255873536063,-0.15496963825586216,-0.45760953408742355,-0.39374905839176033,-0.36086352780800857,-0.36743261929420273,-0.3276244495976206,-0.05333555774802178,-0.2376576214029471,-0.3684466995783969,-0.298571503503817,-0.21559832599047607,-0.11038742515031635,-0.26234780640135497,2
5.9,10.8,4.875,4.025,13.95,15.475,3.45,8.175,372.0,625.0,293.0,251.0,909.0,920.0,187.0,487.0,18.0,14.0,14.0,13.0,18.0,15.0,15.0,14.0,-0.24212843188995298,0.011628255773306442,-0.09856252256223998,-0.1508522385210987,-0.2181138128452808,0.010720385679422812,0.1979263676625833,0.001679538781052179,-0.5038627387660677,-0.32586452247468656,-0.2717733059255896,-0.22054924327819744,-0.38440662039032236,-0.34064045361976203,-0.11238970933372332,-0.03794694950649096,-0.34357609739007944,-0.20433593519247167,-0.23011041238501206,-0.0886300732679403,-0.05131558618078153,-0.34594589418262917,-0.24316009132617777,-0.033875469596641526,-0.2246337738127274,-0.197007360778681,-0.27140101658047766,-0.249507138742164,-0.44822179367521386,-0.2621662367350959,-0.28974897949989187,-0.343401534922994,2
4.65,13.05,4.75,3.1,9.5,13.825,3.8,5.375,287.0,739.0,284.0,192.0,621.0,766.0,262.0,325.0,18.0,17.0,15.0,13.0,16.0,14.0,18.0,21.0,-0.23247311089417816,-0.1396724436707517,-0.0014089439705255692,0.0345275449723187,-0.11222972070623666,-0.2502005622308401,-0.14399128825477264,-0.2636890658800453,-0.3477142217582234,-0.4323254085614117,-0.3716498503626597,-0.264340195735731,-0.32586762822697224,-0.11709806774271535,-0.29883742227514637,-0.1590265634540607,-0.6314595123832943,-0.48137811922793167,-0.24582269440037952,-0.42670960798492147,-0.3231698579710515,-0.4957130850542363,-0.48812105504918174,-0.33283526234303595,-0.4764863541179137,-0.28510347410428627,-0.2117217658644767,-0.12336989404086411,-0.36768543712119256,-0.22378918763578529,-0.33818701107189636,-0.17909221655931362,2
8.275,12.625,3.9,3.2,13.25,14.35,3.975,6.075,582.0,829.0,240.0,188.0,982.0,882.0,285.0,387.0,24.0,17.0,17.0,14.0,27.0,15.0,21.0,20.0,-0.3768350719543145,0.06977842862855892,-0.2591346868921426,-0.22081977906943193,-0.36807744671277565,-0.07671063416556682,-0.16370656532019565,-0.4339217648771849,-0.3085437933855748,-0.26544457331577104,-0.09424108634874874,-0.12056050990447116,-0.33493739579572906,-0.4031292689479032,-0.24119429482837076,-0.3387225735313831,-0.7628712374973726,-0.17415383771466197,-0.06184908364445085,-0.14932629846183545,-0.43705653676246986,-0.3189998546532192,-0.4842993662021756,-0.1861074092939631,-0.4172553268875848,-0.0363199235182378,-0.14161146686874368,-0.26505916425217285,-0.45685238092989827,-0.35629193780123136,0.10626373696192942,0.05666631138217801,2
3.85,11.4,3.725,3.2,11.3,14.6,3.325,4.05,237.0,705.0,219.0,180.0,778.0,1001.0,238.0,270.0,14.0,17.0,19.0,16.0,17.0,20.0,18.0,16.0,-0.31159828409010176,-0.12983691885726167,-0.17349397445298975,-0.19130053007794404,-0.3204246395030701,-0.15542226484285207,-0.2041301580288596,-0.2902282684916051,-0.12894848257021232,0.22871272726831404,-0.19605626209439322,-0.1785353091313148,-0.3598618558546889,-0.37280700844824993,-0.47048222307092513,-0.3220598772568964,-0.655767462104221,-0.3464615736874979,-0.4036408129177422,-0.13423952920614507,-0.5137086114448842,-0.19683927672221063,-0.1964792287524195,-0.037237684477849226,-0.48969909509455234,-0.06406914209131938,-0.2379054655856824,-0.11468867539401742,-0.36113989565412613,-0.26813139651905926,-0.07200639810581663,0.15356122396001448,2
4.6,4.525,2.825,2.85,8.225,9.875,2.2,6.475,315.0,306.0,139.0,165.0,506.0,597.0,135.0,437.0,17.0,17.0,11.0,16.0,17.0,15.0,18.0,19.0,-0.5719749121796766,-0.4925018903231148,-0.43099173545081226,-0.09279477374918704,-0.23973389180070057,-0.1443363558369697,0.0942890930696229,-0.1967037905031383,0.012013475425558553,-0.20021790147594107,-0.13736518250787938,-0.27364923031920707,-0.374351539092967,-0.4101841805222508,-0.3801810500534188,-0.45711511944616223,-0.3653048403656972,-0.18975897065503666,0.1429897681925556,-0.11133624823711316,-0.4420339490575383,-0.40565759263011986,-0.29531068219196843,-0.4545035210979816,-0.45627264331867246,-0.1080389007286569,-0.2561308443642654,-0.36484824809788824,-0.419282077586959,0.324523305206182,-0.03753822033887782,-0.1351954471465607,2
7.825,13.2,3.85,4.925,13.0,19.95,3.2,11.8,545.0,928.0,211.0,299.0,754.0,1138.0,194.0,815.0,24.0,21.0,18.0,17.0,17.0,21.0,16.0,21.0,-0.6353832541577227,-0.3977477584484328,-0.2430550357168968,-0.04557117189064359,-0.7149828416754536,-0.5846384217490795,-0.15184828021761282,-0.23080738946771673,0.08740194487650568,-0.42277354021470526,0.20579227272582384,-0.3707966058547067,-0.39175311225753323,-0.03729178572734989,-0.3205136594900082,-0.3301725098983683,-0.380943827681711,-0.3439200474012974,-0.37985910634318704,-0.1384143343645411,-0.31973721114805037,-0.3709682237337636,-0.2307877618769843,-0.34017094878926424,-0.5753366621392506,-0.3438667752405198,-0.5617167984107267,-0.4302776583879498,-0.3890326091081982,0.16506210050837247,-0.19505768449583924,-0.3963006864857311,2
9.125,16.025,4.1,3.7,15.4,19.3,3.425,7.15,586.0,912.0,261.0,183.0,1040.0,1216.0,222.0,439.0,16.0,15.0,18.0,13.0,19.0,14.0,15.0,16.0,-0.5506710140363,-0.7237337515559708,-0.453238673499946,-0.5136752182213296,-0.31216545285525943,-0.20721584510487018,-0.4804074404917014,-0.2281841224968825,-0.22638486513485961,-0.16080584364026743,-0.21254925607652395,-0.22682792748421615,0.02206607012846553,-0.2452216907240983,-0.21464288976029214,-0.3907569095170273,-0.5489909511568323,-0.26179336451991836,-0.153741445870358,0.10609348888266056,-0.5974890321120674,-0.4759312578374449,-0.31553062692625294,-0.2536038653677707,-0.435201324240374,-0.49184905014362074,-0.3027146767447488,-0.015329065853092948,-0.3640512800723336,-0.1664524483204498,-0.13391753703417358,-0.20388770340153056,2
8.15,13.575,3.45,3.025,10.525,18.825,4.375,8.825,506.0,813.0,218.0,199.0,653.0,1095.0,278.0,552.0,14.0,14.0,16.0,16.0,23.0,17.0,21.0,15.0,-0.27283422605616237,-0.5021718517866356,-0.15928132084559843,-0.189984111698952,-0.583907540461317,-0.4610868809202837,-0.4361104761449056,-0.3752596523792586,-0.1851041183500211,-0.0569952013581115,0.09090368100722179,0.007429604705099953,-0.38954736818349434,-0.2737460150337534,-0.3443995684377305,-0.33543774210670757,-0.5450959543848304,-0.33448770023758523,-0.10514186953035518,0.04098885827524396,-0.577832321800213,-0.31727322818862297,-0.6625554655501991,-0.506097624771476,-0.6286727636792058,-0.5089248458576737,-0.49753707958894827,-0.2743082842855985,-0.2429528534176902,-0.27958760406216965,-0.18379456705958427,-0.3861315063313343,2
9.475,15.9,4.625,5.1,12.95,18.8,3.775,8.3,511.0,1022.0,261.0,328.0,932.0,1267.0,223.0,500.0,16.0,20.0,14.0,17.0,21.0,18.0,15.0,20.0,-0.324400760944792,-0.3950155966442362,0.015646652403403065,-0.08639719931785055,-0.46151759608456117,-0.336611805964956,-0.030500937224840537,-0.20553237245648914,-0.12374559287416516,-0.5424002446502371,-0.11513573799691723,-0.428834757201857,-0.4039724841357945,-0.38333178738087476,-0.2919169182198143,-0.40364731826007527,-0.5717522907016338,-0.5161371252671803,-0.2682207047587644,-0.2906863954732837,-0.34571601842457067,0.00043724549493604625,-0.11471931724015529,-0.4423293568988564,-0.3968704803232796,-0.27915126946322916,-0.35340663583538384,-0.32443208810361207,-0.3129347148031631,-0.12584661366346864,-0.2712041561595698,0.05574626729779534,2
6.025,12.375,3.225,4.375,10.1,11.55,2.4,5.675,411.0,756.0,203.0,271.0,667.0,769.0,154.0,353.0,15.0,13.0,13.0,11.0,17.0,17.0,13.0,16.0,-0.5855176348176396,-0.2571656248804778,0.24996825407305692,-0.12853375110581466,-0.39715459020402066,-0.39068680560892416,-0.4530884667424691,-0.2437409336835578,-0.2931901308886335,-0.3651588501789104,-0.1810227611883707,-0.42610754524877276,-0.47139515199582727,-0.2230504532016411,-0.4004244220787046,-0.2553161584278131,-0.5215308713266364,-0.29694549949289856,-0.42190382438126733,-0.07679706969581304,-0.41719883017032705,-0.07500179237044045,-0.28294914239184416,-0.4037632259004391,-0.48883005961194503,-0.13009730250577217,0.14625960217002776,0.06766465186113055,-0.38168590345589615,-0.2292778425378019,-0.3622155868711599,-0.1278914178501318,2
4.2,11.025,3.275,4.8,10.525,12.75,3.275,4.55,250.0,735.0,206.0,318.0,761.0,852.0,218.0,307.0,13.0,17.0,16.0,17.0,24.0,20.0,18.0,11.0,-0.17494168672073296,-0.2533442384944343,0.008252983532376548,-0.29862982702978086,-0.31164730662743756,-0.07526334542188488,-0.2551736639419796,-0.20397363705689628,-0.391395977672845,-0.10835280851972781,-0.10733554115743787,-0.2744481885968723,-0.6731966379930368,-0.8179414711483696,-0.632742586132814,-0.6565460836994523,-0.6850154712597564,-0.37578606142969256,-0.32710003266064475,-0.06600841055624536,-0.5437495056990855,-0.13501470464235815,-0.2537021832298819,-0.04290396656647499,-0.332395138860713,-0.39074365724002663,-0.09206338981726021,-0.506829865075788,-0.3472182169583284,-0.2044536375534486,-0.07709208857271489,-0.2318039211757305,2
6.025,13.8,4.025,4.825,11.95,21.275,4.225,9.075,335.0,887.0,247.0,307.0,799.0,1441.0,249.0,604.0,11.0,17.0,16.0,17.0,17.0,17.0,17.0,18.0,-0.042331544786342705,0.039360212500948635,0.008794586787545633,-0.2671248971155421,-0.7216223146308725,-0.6192640368608601,-0.5812897943481111,-0.4773683082149351,-0.2800206939210839,-0.13754210167298359,0.046856671199457606,-0.20343311470614772,-0.4082393204174174,-0.32582375835590166,-0.3662551173744312,-0.4453496395293946,-0.3988108086274666,-0.2980849966414393,-0.1033661312627678,-0.37241393535726164,-0.6278309033278705,-0.22144313734154156,-0.0900930456091319,-0.29156805456750995,-0.2841132683143947,-0.15236347938087783,-0.12651078896741233,-0.44981464303204294,-0.48889243251195985,-0.37337845776010437,-0.2360298499827652,-0.32551553009649525,2
7.825,14.3,4.4,3.9,14.1,17.525,2.8,6.325,501.0,871.0,260.0,212.0,900.0,1152.0,182.0,358.0,16.0,16.0,13.0,18.0,18.0,16.0,15.0,15.0,-0.24151324031453839,0.1605751424829861,-0.043977941385595846,-0.46772121905616015,-0.37856038295344385,-0.2771994861094175,-0.4155279587377154,-0.44047752473398566,-0.18740601187429137,-0.29766853136013577,-0.009167577252496199,-0.15292746397060483,-0.05036118339156233,-0.307226929152656,-0.22212026731423856,-0.18661623817346176,-0.5865617376683488,-0.23995053680464903,-0.2821957082746856,-0.2655278610774586,-0.5979304242133657,-0.22541751522321776,-0.35862919008258526,-0.39195163103669184,-0.6779924635180966,-0.477768618663688,-0.45128059223084965,-0.3977772150186509,-0.23053899954121157,-0.32387455424345046,-0.08032892390629887,-0.24386653902907146,2
7.525,15.175,5.65,4.05,14.2,15.125,2.5,7.325,466.0,907.0,365.0,259.0,991.0,965.0,162.0,439.0,18.0,18.0,18.0,17.0,20.0,19.0,14.0,17.0,-0.33689861091640144,0.04100343168685789,-0.05465237186342662,-0.1426846543231585,-0.40267505785113106,-0.43160185630586045,-0.22864932773190577,-0.31189492582235173,-0.32212945866695497,-0.34885000148278983,-0.14703011211963923,-0.2954835931802128,-0.6940843162074986,-0.5544673741950376,-0.3496709122498727,-0.26264384700130966,-0.6385912125956175,-0.23234497149344255,-0.2814089704029402,-0.22984718393275408,-0.43270925816007116,-0.48876040585959163,-0.3405244734143625,-0.1194124575658966,-0.3241130696656656,-0.22967235628515015,-0.2548107045645212,0.1288206543973602,-0.4187853372791289,-0.4186453847755766,-0.4994326973161104,-0.26257509763566705,2
9.65,15.925,6.075,5.35,13.6,16.775,2.95,7.7,680.0,960.0,415.0,336.0,955.0,1010.0,178.0,529.0,22.0,15.0,15.0,19.0,19.0,20.0,15.0,18.0,-0.5813361077291169,-0.16262976734001386,-0.30152441532659446,-0.3459582430818477,-0.399565881351082,-0.30138452082784567,-0.13340906663942423,-0.4640062478491949,-0.47019118190153936,0.012755223870128328,-0.20162113056666067,-0.27170260521340245,-0.41736748920276057,-0.08877307023299112,-0.14015040950477953,-0.22713322842452163,-0.572377818910452,-0.2963489517871629,-0.4679707279117944,-0.19769683546486846,-0.2524822724633776,-0.35375535160724436,-0.24122481009805913,-0.22113845914091376,-0.42031005163196083,-0.3278432330235965,-0.21651602449928992,-0.11495207805119104,-0.7336734242083153,-0.5608060757053877,-0.4320713941508327,-0.27355013495097685,2
13.25,15.275,5.3,4.65,12.275,12.6,2.7,7.325,900.0,913.0,290.0,262.0,734.0,904.0,139.0,477.0,16.0,12.0,15.0,15.0,16.0,22.0,9.0,18.0,-0.2820307835266261,0.3366000040415744,-0.07076669276896655,-0.41468476223846035,-0.20351106926288734,0.016245533069891627,0.05750713590101001,-0.28529965802932555,-0.1609459865189264,-0.30223539136964456,0.05573635973740488,-0.3264652745227986,-0.28323279491737435,-0.2836144075927714,-0.08501077155673514,-0.2580980384761362,-0.37619594723865096,-0.4125737490341582,-0.20462788140132426,-0.32599785467781406,-0.9229480134324191,-0.4838163930211843,-0.3868647483328145,-0.08735949051732167,0.03226293576309336,-0.31065299592375467,-0.10869388028190306,-0.27638314432777905,-0.4524370274991331,-0.28009601180023525,-0.025858548664799058,-0.20635852760307818,2
8.675,15.4,4.775,3.825,11.75,13.825,2.975,6.825,581.0,931.0,305.0,245.0,781.0,907.0,188.0,458.0,18.0,18.0,20.0,14.0,16.0,18.0,14.0,14.0,-0.40628043675542647,-0.12079901626420096,-0.41349863878540866,-0.4228777071344192,-0.14906067382006827,-0.10884008033432466,-0.166412705836224,-0.11354030003664173,-0.36920042864042096,-0.2738216074905053,-0.09132239571635845,-0.10214379346547514,-0.39214960286393824,-0.1262102387592976,-0.2945764107817995,-0.46731734733646957,-0.6655639393141074,-0.41010162540543255,-0.4478675453447686,-0.32172845785320336,-0.5433389117045835,-0.34922790878196946,-0.5341531106301098,-0.4014435219671649,-0.37721043394407117,-0.2971928548717483,-0.4206136499736043,-0.21965098170234257,-0.4866974493896628,-0.3282579864209367,-0.4264469031262297,-0.4789009368711473,2
9.075,14.35,5.5,4.5,10.65,22.375,4.25,8.225,583.0,945.0,383.0,276.0,779.0,1458.0,271.0,546.0,22.0,19.0,18.0,18.0,20.0,21.0,20.0,15.0,-0.27633827247767556,0.051849546458589406,-0.07498705207633266,-0.004645990227670408,-0.3909757205821604,-0.17059952193467928,-0.08782144497239669,-0.10377210393410871,-0.7204843697376444,-0.5867351163933868,-0.3597896812735853,-0.20818482856567155,-0.4213268066571332,-0.4952712234745052,-0.26103945577445364,-0.39103113118740856,-0.5215211830294552,-0.07454867642932288,-0.3467424859943246,-0.10594951671885551,-0.42993499647554534,-0.3634908010209039,-0.014863410508974034,-0.29308300570047563,-0.4106356056924795,-0.46045832262846825,-0.2431596347530811,-0.14090692349266593,-0.40382736023041016,-0.43277959968238416,-0.049658107329219395,-0.31189743977617934,2
20.975,18.575,4.925,4.05,13.075,22.225,4.0,6.575,1490.0,1326.0,282.0,226.0,882.0,1482.0,239.0,402.0,22.0,23.0,11.0,14.0,20.0,19.0,18.0,18.0,-0.6941698639559911,-0.35989115468155497,-0.17640240354697095,-0.05889500331718617,-0.7135093515375317,-0.5635759734844041,-0.33688081860313623,-0.22307278722877705,-0.30370688027995074,-0.4708134617984109,-0.40761643729963587,-0.36828728611930617,-0.3564302006923567,-0.4160195817940439,-0.3968555908559769,-0.3015493789747559,-0.5266216637670683,-0.320730298770288,-0.12756547572495297,0.019886217972395613,-0.5142195919733189,-0.18431059276371012,-0.18374420649049777,-0.3311860713524558,-0.5069137051267628,-0.45814765541421754,-0.396845666635022,-0.371927159788125,-0.44031523199144346,-0.4981821826072619,-0.317924300400013,-0.2993069498211263,2
19.225,16.15,3.825,3.8,15.9,18.05,3.3,8.375,1333.0,1008.0,212.0,197.0,1068.0,1193.0,194.0,591.0,20.0,16.0,11.0,10.0,17.0,20.0,18.0,20.0,-0.38317783830294366,-0.2062691534544344,-0.0695971653498216,-0.07667365459484216,-0.551742040587639,-0.546697353795649,-0.3120911452768534,-0.09342909946607386,-0.41953822766687054,-0.6708854783649914,-0.4014780632087297,-0.5200275666986872,-0.1804392720556299,-0.4420196176778173,-0.23016968651525888,-0.3871030170246261,-0.8510701228860736,-0.6064226507111851,-0.5522125817936697,-0.411246895120211,-0.6774899939575103,-0.4292959730916569,-0.22999682246928096,-0.11741972318174924,-0.4443458282696082,-0.26831242537028577,-0.32264422718371055,-0.22452084861828667,-0.4447751061707074,-0.11628487226499866,-0.1877956601221978,-0.24693810721130038,2
14.425,11.55,3.975,4.125,10.15,17.15,3.225,9.3,960.0,706.0,242.0,268.0,608.0,1166.0,215.0,597.0,21.0,18.0,19.0,16.0,14.0,18.0,14.0,18.0,-0.3923060419867673,-0.11069920491923899,-0.15134827311759796,-0.3545411814677158,-0.16107237604733773,-0.246233243786066,0.08439408660497838,0.05750442633563141,-0.39557582746509656,-0.27351285534850783,0.04310506254380241,-0.16286969785287228,-0.48615764692950325,-0.14155474426229486,-0.15425157181791316,-0.3210195526050492,-0.4171344493304919,-0.49806539551123485,-0.29873299545338294,-0.4037967183869918,-0.4814613074895159,0.024991067188725565,-0.3074201184619822,-0.44889383726474447,-0.4873132814357263,-0.30023003414958727,-0.3397584096311847,-0.3193956570275499,-0.42805032972792606,-0.13539597621266233,-0.24473498514769498,-0.2990565693954652,2
13.25,16.625,5.2,4.1,12.475,17.3,3.625,7.675,862.0,983.0,273.0,258.0,734.0,1199.0,248.0,517.0,15.0,15.0,12.0,16.0,15.0,19.0,18.0,14.0,-0.40964614663814236,-0.12534718513475623,-0.4889769793446329,-0.29460168443369256,-0.3352425881552802,-0.22144212872425367,-0.4616810290388282,-0.15308267375207465,-0.028614844410868305,0.018763825721931124,-0.1749103016875936,-0.2035100463683384,-0.4588022131058847,-0.25062833606070206,-0.17677910150539214,-0.2974439463838502,-0.23110688543524663,-0.07465016141878823,0.0074737998076219924,-0.1940942041722079,-0.45314815846027595,-0.1165839717288981,-0.1348407747027145,-0.4471528446984694,-0.6650155075101781,-0.05287688300199176,-0.027205294722030243,-0.2817295538511657,-0.5145558843873388,0.027630731474244972,0.11489543681918736,-0.02796161086483449,2
12.825,17.375,5.0,4.175,10.975,16.4,3.225,9.55,883.0,1208.0,297.0,274.0,729.0,1083.0,214.0,596.0,19.0,21.0,18.0,15.0,20.0,20.0,16.0,18.0,-0.4193231119305771,-0.13873757130710415,0.009151165413841764,0.12408907814300925,-0.5337486443805897,-0.2295114495599101,-0.372372514253848,-0.24934798892937401,-0.1975913666994238,-0.20412127185493495,-0.15752254950620226,-0.364239921506241,-0.5424174465023939,-0.31543567101936737,0.002210252153779598,-0.06999446098423724,-0.6794303364429676,-0.4962442971995354,-0.08458744818566528,-0.03959279876620479,-0.5359169792585298,-0.34941394972703665,0.15148477950277978,0.0645503810304064,-0.7741634841260526,-0.5523467783225663,-0.220499599172225,-0.13018308911680848,-0.397180472111772,-0.28175040633868803,-0.06443272787475206,-0.3245582052105241,2
9.15,16.85,5.65,4.3,11.0,18.3,3.275,8.15,626.0,1025.0,338.0,288.0,618.0,1127.0,187.0,492.0,16.0,15.0,16.0,15.0,18.0,16.0,11.0,17.0,-0.7610795954040276,-0.5477370776897947,-0.39247987294224984,-0.3430238351023999,-0.33221281880906894,-0.39641695215016237,-0.1800109393264196,-0.1154291982176943,-0.211473769824723,-0.20901496708459597,-0.39781398233527016,0.022309192599710623,-0.5071521383196302,-0.32296764259871,-0.4545010191862816,-0.32284780303183624,-0.25120525474937816,-0.24273130945511331,-0.338496645054316,-0.24715371129619404,-0.38674023659217904,-0.31877952907286383,-0.08916028571467964,-0.19134589292759024,-0.4286108523577377,-0.41319018708735905,-0.3315785156351581,-0.3136390856280776,-0.35829861603192903,-0.2953014260964695,-0.3049073475742924,-0.14101706626571334,2
10.5,18.525,4.7,3.275,10.4,15.175,3.625,8.65,728.0,1066.0,294.0,215.0,671.0,868.0,214.0,478.0,20.0,16.0,20.0,19.0,19.0,18.0,14.0,14.0,-0.47443150080195584,-0.20805649252258687,-0.08941532423218665,-0.14256043136859464,-0.4041530882837998,-0.19431555495755562,-0.2369111046043725,-0.2539906543864368,-0.5086553241132679,-0.3768782472029082,-0.22396538136605687,-0.1807645392207772,-0.30824311127251597,-0.14436760086298195,-0.06882000547723922,-0.25699241882679674,-0.40617719673801894,-0.181304045538003,-0.14856838241557624,0.08283550381637542,-0.22188065124966935,0.01282534087386018,-0.029584540625915687,-0.18963006880229452,-0.25600720922753556,-0.11296141827218203,-0.2637389543383062,-0.1305864712448497,-0.14543179637980208,-0.20549364215472982,-0.40104046252620196,-0.11985366022294566,2
9.8,20.4,5.0,4.325,14.6,19.025,3.225,7.95,603.0,1462.0,308.0,279.0,971.0,1298.0,204.0,509.0,16.0,20.0,14.0,18.0,18.0,19.0,17.0,23.0,0.01622081328955366,0.29671478705071225,0.21249000434170062,-0.5014362242758766,-0.6467029573763483,-0.34337146455558126,-0.20365420852274363,-0.224825772224331,-0.43953809841608604,-0.22343042548873673,-0.11172458128004589,-0.1792890482695714,-0.5136556227473579,-0.47367145961095974,-0.3389584526458115,-0.30348888157710074,-0.5591396145200637,-0.33525798541407376,-0.008782791941634832,-0.22632811790640117,-0.3944116065698826,-0.24927146041417886,-0.024693989515372095,-0.2263022698207343,-0.4954525687791431,-0.27276352349186495,-0.30823466360234947,-0.09005842402749746,-0.2910862957791538,-0.2757736967503682,-0.07953433636845819,-0.22835431866662223,2
11.75,19.9,5.025,4.475,14.0,17.4,2.775,6.95,783.0,1188.0,323.0,271.0,971.0,1086.0,169.0,495.0,18.0,14.0,16.0,14.0,20.0,17.0,12.0,18.0,-0.34002571741480925,-0.09913292276366419,-0.016827088377156102,-0.0873719808874515,-0.41435814908643115,-0.5543993209052405,-0.3508146944191618,-0.4765569924148269,-0.3053666279082137,-0.311425492291222,-0.14647106079813932,-0.07415301733285753,-0.35230911813753013,-0.35797604571944425,-0.4673940565597043,-0.09458933747231864,-0.5380298480667142,-0.2781936817105872,-0.27494016145056294,-0.1968180443598658,-0.38520428496658665,-0.36703747943537685,-0.09148544911550863,0.14315555366698562,-0.3232419520032475,-0.45421739455829885,0.08020495108870294,-0.02463561190028496,-0.6836327446584073,-0.5151057412748012,-0.12327640257332038,-0.24741027550634945,2
12.25,12.65,4.025,3.8,15.6,15.9,2.15,6.575,775.0,768.0,250.0,216.0,1098.0,1043.0,125.0,440.0,17.0,16.0,16.0,15.0,19.0,21.0,12.0,17.0,-0.614715192760809,-0.27209872567938026,-0.19162445111506834,-0.02403095686432878,-0.42296940784973913,-0.49586331558450514,-0.28983026579829513,-0.1356432105650011,-0.4226725413698491,-0.48812600546232,-0.1506159650915393,-0.19715811101282746,-0.28467006311970905,-0.28759228297969025,-0.3953594269050985,-0.3160410747344432,-0.6889991952420486,-0.4071018295564308,-0.3556192005763852,-0.3537687106546472,-0.5019491635334546,-0.0952503768442139,-0.4886493226596685,-0.5225617056540627,-0.06205169318965918,0.11734076109041704,-0.1452518916626692,-0.19321442103979045,-0.284961497008114,-0.10068495062908883,-0.11280005251685812,-0.4617919809887281,2
15.1,14.125,4.5,4.025,11.45,15.85,2.8,9.25,983.0,1015.0,278.0,241.0,827.0,1093.0,163.0,537.0,19.0,20.0,17.0,18.0,22.0,20.0,14.0,16.0,-0.5000523101815503,-0.11591225910257023,-0.2133375739805273,-0.15460982203763116,-0.5888797938726238,-0.23716306436683146,-0.4012162262174877,-0.0809812059594386,-0.370649021781804,-0.2732986940470886,-0.013839441776335826,0.051219138866175774,-0.368607315832831,-0.19332494283695678,-0.34996140541386944,-0.3557493052577355,-0.7961329056285817,-0.32293750824346185,-0.3162950282877692,-0.3507820490333216,-0.5549358478481421,-0.36121014313590133,-0.4094321214704416,-0.14080420868327181,-0.1723635518325775,-0.12662248907552467,-0.2718209522607944,-0.1149608549443759,0.016997123754568747,-0.22864451729509103,-0.039211490289828684,-0.28096781744287286,2
13.425,20.9,5.225,4.9,11.0,15.725,3.075,11.55,887.0,1286.0,304.0,250.0,744.0,895.0,169.0,708.0,16.0,15.0,14.0,11.0,16.0,10.0,14.0,16.0,-0.48867638413127645,-0.22684647061899574,-0.050846944522717534,-0.008349618553193768,-0.41272879590713407,-0.3890503216154412,-0.3032813294997775,-0.1681508544026054,-0.25399529083082084,-0.366661907459997,-0.17005404981443525,-0.26202493774734226,-0.12707206937654877,-0.11970705396790277,-0.1835798770537588,-0.3040155522741503,-0.4418234354323523,-0.024401445315826935,-0.04545983195649488,0.028320699138220207,-0.15543659187220218,-0.2929048230349069,-0.1632926453792954,-0.24370954845680032,-0.05060093757204483,-0.20067058106760796,-0.0759560322035575,-0.08287185073707196,-0.13661446499023117,-0.10533175955603169,0.10217618016706552,-0.16685059579799508,2
11.95,16.6,5.175,4.55,11.95,18.95,3.425,8.15,810.0,953.0,273.0,290.0,791.0,1088.0,178.0,537.0,21.0,12.0,12.0,13.0,22.0,14.0,10.0,16.0,-0.5853613774069623,-0.2506703121765523,-0.054392106661787266,-0.14521052346737448,-0.5000151498055834,-0.5761488383053969,-0.6866486594865243,-0.24288261505030806,-0.1847497456717792,-0.4188311527693238,-0.21481467176690064,-0.03360483679226883,-0.17759272835964454,-0.14559368285998575,-0.02324116946719005,-0.17502122406848708,-0.19577401232617198,-0.13978542163231297,0.1760268527227681,-0.2721985498192019,-0.2531667941901412,-0.3507245554247342,-0.19570363068751856,-0.21969797423434684,-0.025223300254303308,-0.34867622908539486,0.021144650791962802,-0.06424252112891458,-0.35331232031560356,-0.11206911083400901,-0.011294776195089607,-0.12409543829310417,2
13.8,11.05,5.475,3.3,12.425,19.575,2.95,6.9,1029.0,711.0,336.0,202.0,758.0,1299.0,169.0,425.0,21.0,20.0,15.0,14.0,20.0,22.0,12.0,19.0,-0.5541968984440006,-0.03197317010630714,-0.07774763817783224,-0.2890724580121481,-0.13352307549454176,-0.12779096174687246,0.13139284834121293,-0.3323923970152833,-0.23441407221502264,0.12194578371600599,-0.06959559860502512,-0.22949962847124353,-0.3667979685316184,-0.1365050843572323,-0.10668733332616477,-0.2324115849515195,-0.38155795980036916,-0.30981263525133756,0.023519592429037263,-0.23756172658774444,-0.40176361201441957,0.027954056149743018,-0.01389175742129637,-0.4111333305128626,-0.10426286698020112,-0.2492900060868832,0.06041155299775067,-0.07319200474871254,-0.27729506774047585,-0.09613772158165393,-0.29699627850861665,-0.10045204818533494,2
11.55,15.0,5.225,3.575,11.575,14.3,3.425,5.825,807.0,962.0,305.0,215.0,759.0,967.0,215.0,342.0,22.0,15.0,14.0,16.0,20.0,18.0,15.0,14.0,-0.2963973701082262,0.03291453419849765,-0.17275119954405138,-0.20397459886379923,-0.3374354940786608,-0.07745967363924004,-0.04938785407425936,-0.1626345392019381,-0.11378898678769679,-0.051382018187442674,0.1280973956446297,-0.2551500214708843,-0.32122345184005757,-0.3180510514633822,-0.16379911211437617,-0.1409453047973886,-0.5262866296968811,-0.404540836369647,-0.18201775573324347,-0.28502002478607186,-0.519111178740571,-0.3567806643235812,-0.1541128040300606,-0.3418592597911726,-0.517505427287718,-0.6332045639227706,-0.28664683769931165,-0.22690753243308923,-0.29685436884275024,-0.44620002975661666,-0.1580167365836003,-0.10812381272101043,2
11.975,16.15,5.925,3.725,13.3,16.6,3.875,7.375,834.0,1136.0,395.0,230.0,887.0,1027.0,241.0,441.0,20.0,22.0,17.0,18.0,22.0,18.0,17.0,15.0,-0.6084044005233464,-0.17907443692168115,-0.2255834263474623,-0.10014067298446326,-0.4294416655755091,0.05066559865816142,-0.18380230781374593,-0.16732479907902967,-0.4338255729612088,-0.00017262884027506207,-0.0851771538477755,-0.22560377344606042,-0.09965400362094963,-0.49995757068646496,0.028600225974858163,-0.542981360893891,-0.48708749643986704,-0.159766307068043,-0.3571917810510412,-0.20882048169668996,-0.4602271203872133,-0.31593080519893696,-0.17554699343043612,-0.1662395962021043,-0.3043449808474111,-0.13956437932281282,-0.27910824548021507,-0.13936863548023587,-0.16497930950042553,0.2408322690177109,-0.11238415760720381,-0.050927427904641095,2
9.475,13.825,5.425,3.25,12.775,17.875,3.075,8.0,562.0,917.0,358.0,213.0,873.0,1229.0,193.0,492.0,21.0,15.0,20.0,18.0,20.0,21.0,16.0,15.0,-0.2758072564469689,-0.4919339517673314,-0.07433259598125666,-0.2475396838411352,-0.36376748205867143,-0.2503540394045105,-0.21669113397937845,-0.11729478370463592,-0.3530124779653767,0.018318388107370853,-0.024386951845901964,-0.23241754172370482,-0.4901984972529818,-0.43253711114361243,-0.27534477735534607,-0.27470567781688293,-0.6822334310836821,-0.46948080771732725,-0.3079722166892787,-0.21085317684295915,-0.7085700770830169,-0.3007042251527035,-0.40311476089795206,-0.3767459533491593,-0.36257978694078763,-0.1937412631478641,-0.43783132427366656,-0.3276383982849943,-0.7010161557023443,-0.38206289097908397,-0.4788814575538098,-0.4773707893891736,2
6.65,14.675,6.2,4.6,11.925,19.35,3.05,8.55,352.0,1008.0,408.0,301.0,790.0,1130.0,184.0,544.0,12.0,19.0,21.0,21.0,19.0,16.0,15.0,17.0,0.0431886378114389,-0.25480757244748714,-0.013670072514527199,-0.108233746467131,-0.3761950528318202,-0.09982189165475476,0.11271967815261899,0.0371334093120071,-0.4558978076565724,-0.2773207251653221,-0.09054715215534231,-0.1569395259573688,-0.34910304087252314,-0.16472034161085283,-0.122794119264096,-0.274099726490626,-0.206037413841028,-0.44238124624491487,0.2506628704660517,-0.19497822118500735,-0.18484215223623393,-0.4591106085275963,-0.13086218967439717,-0.3795676283756084,-0.27752295448777203,-0.33538890676024646,-0.2487955809891403,-0.2519594686656981,-0.3183571830375006,-0.14200990620380968,-0.18958405008653365,0.0370200945070712,2
7.725,14.95,5.3,4.75,13.3,25.375,3.925,10.3,472.0,940.0,328.0,278.0,886.0,1670.0,245.0,642.0,20.0,16.0,14.0,15.0,17.0,18.0,16.0,18.0,-0.22403493901331653,-0.09091853053842693,-0.36019183210427796,0.055578209792723626,-0.32781645066347426,-0.5355636474928279,-0.2666813501016785,-0.4836807189668358,-0.3346264480701049,-0.5576077022171891,-0.27102608363989855,-0.5612386061889102,-0.2964999499081834,-0.5911019787482478,-0.3199006386987091,-0.4580997423086321,-0.45107387706762286,-0.27385998319800936,0.11513944546360025,-0.09988633001793988,-0.8550059325194858,-0.5645715568670868,-0.2834277689962514,-0.0533452715509311,-0.42198085266266677,-0.41465242727746493,-0.24556275239594125,-0.29336100043944896,-0.35392211813448443,-0.020345222875050816,0.18239028831503434,-0.1682415613410637,2
9.325,14.9,6.5,5.775,14.375,25.55,3.325,8.475,638.0,929.0,437.0,394.0,901.0,1710.0,227.0,611.0,21.0,16.0,19.0,22.0,16.0,19.0,21.0,21.0,-0.5598431576531255,-0.43515432822339745,-0.19452846058605683,-0.24702158638160693,-0.5162459846106152,-0.6281080896138186,-0.4135759158363046,-0.3193591611246194,-0.7968501518698912,-0.6392841206054795,-0.6042281775451921,-0.42886205659846693,-0.577257219647137,-0.3299769687272619,-0.34876768529367635,-0.3395895119558763,-0.4342053585774696,-0.28117508267060715,0.059759514387398606,-0.15197303480228655,-0.7924824439011667,-0.6076718178343663,-0.5139094347004912,-0.12233432712046596,-0.6259010574208654,-0.19806840055191569,-0.21250072763356118,-0.21110848863408105,-0.6321548310915655,-0.023837843143954464,-0.004889401004094181,-0.140373233958998,2
10.75,17.475,5.9,4.95,14.4,20.35,3.45,6.8,710.0,1153.0,404.0,311.0,920.0,1399.0,241.0,453.0,17.0,15.0,17.0,15.0,20.0,24.0,22.0,17.0,-0.2625504144637039,-0.266127285573305,0.08474148346153577,-0.2780880614199183,-0.31706837194821935,-0.12355092631488766,0.07894776056153924,-0.24722191763906848,-0.5627260420195267,-0.3025472855876583,-0.33443891122760666,-0.19570114293873447,-0.41541858800870557,-0.3703865838227828,-0.4865173489098961,-0.29662328428911544,-0.30696952007070893,-0.11519709868567461,0.02770514162334568,-0.2064878065820618,-0.5734165971586449,-0.33744182670113493,-0.3223977774327199,-0.20145148114276695,-0.6482307134486691,-0.14331066164729445,-0.2219265072603405,-0.21612617539937984,-0.8201283122718359,-0.5409060838834883,-0.4179971259775123,-0.15025379102607608,2
7.925,18.425,4.9,4.3,12.3,18.9,3.25,10.475,476.0,1176.0,304.0,245.0,745.0,1138.0,213.0,685.0,15.0,20.0,18.0,17.0,16.0,14.0,18.0,19.0,-0.1256595228676915,0.02608948782251251,-0.23451605852514257,0.07484406951314228,-0.32296400618725296,-0.06767057909808402,-0.3317278284108104,-0.22255460092194762,-0.3504791474631706,-0.27426451053981743,-0.3208946784322986,-0.12907187862459943,-0.3744764703483721,-0.5134904681911279,-0.17153681026455703,-0.20042771480585744,-0.3978805796153008,-0.20944341791323842,0.05796343409562259,0.2021757707058697,-0.3580960615856593,-0.31436648621882385,-0.2551597483721986,-0.25315813858134417,-0.6786478064655338,-0.6918473007260132,-0.3164244482880604,-0.260903720357,-0.4959931918571924,-0.21243951332483998,-0.16178217674566722,-0.3308340748055555,2
9.1,19.925,5.775,4.65,15.025,19.425,3.1,9.525,553.0,1227.0,351.0,270.0,1007.0,1149.0,192.0,648.0,18.0,18.0,19.0,14.0,24.0,16.0,14.0,16.0,-0.3316067271430832,-0.04584852470372566,-0.02644988602762955,-0.06830752300919482,-0.20247321631702198,-0.07934925117678844,0.15196513144026677,-0.11776354656254912,-0.2539464357438442,-0.351680496455714,0.038681053750031065,-0.3239485041427581,-0.19246360892919603,-0.18394598544714336,-0.20832844404490092,-0.16753882058853314,-0.4734342474652613,0.03165634413622782,-0.07674056559354335,-0.2736722964762017,-0.326748679732358,-0.10837968073349784,-0.2899433626477033,-0.5813798307035521,-0.4806338594204799,-0.36177630241869385,-0.1703927441739542,-0.4665812117936075,-0.43703678565210163,-0.04620801726295806,-0.09335351662096354,-0.14997598024712328,2
9.275,20.525,5.45,4.5,17.55,17.575,3.275,9.875,538.0,1290.0,330.0,255.0,1118.0,1127.0,223.0,649.0,15.0,15.0,15.0,11.0,18.0,23.0,15.0,19.0,-0.2591470707371906,0.013388961799985196,-0.1222658793852588,-0.35379073784685977,-0.37303783290353587,-0.19896375114035406,-0.03512004362115608,-0.34269789798616535,-0.23086547793156514,-0.4264673980103808,-0.09325213478867592,-0.5195403991163716,-0.3309792546633071,-0.12087675568598384,-0.2895772026805865,-0.5167358703735816,-0.6912813033147845,-0.4353140279628945,-0.4071230438286089,-0.40173841609289146,-0.37190184541276755,-0.16757893635754345,-0.23182980720321109,-0.39699879915016806,-0.5026150168674911,0.1268390731016705,-0.07735370998049622,-0.3644781955756246,-0.4387369425839447,0.0026140531013299968,-0.13719053694042815,-0.3696934744647689,2
10.05,16.825,4.975,4.7,18.9,19.275,3.625,9.275,656.0,963.0,283.0,335.0,1276.0,1314.0,229.0,613.0,23.0,19.0,17.0,13.0,19.0,22.0,16.0,17.0,-0.43215189567088613,-0.021057900311792922,-0.12977322866775054,-0.0001549668123221536,-0.27394089658080545,-0.15310684880923342,-0.4837425844275024,-0.299388753123159,-0.038127504613600594,-0.2565568402840803,0.016611464011571115,-0.3794723849340552,-0.7961321631585903,-0.6026584225217523,-0.49010957867636423,-0.44635561163857174,-0.7784551693076169,-0.6214103396034558,-0.3931763882204173,-0.4565108016013406,-0.5194974664544669,-0.3401836711552542,-0.39029982026040216,-0.6015766686490257,-0.4561550733201969,-0.19917333489637642,-0.33620077344334504,-0.32780840841114023,-0.4069486665127443,-0.2314228596444742,-0.18171761728088454,-0.1358354919768013,2
7.85,12.8,4.875,3.675,14.3,17.15,3.25,7.175,484.0,863.0,300.0,238.0,984.0,1092.0,200.0,425.0,14.0,16.0,15.0,14.0,21.0,19.0,16.0,17.0,-0.21662033608714365,-0.17987497686652668,0.005038339389581646,-0.06589744143421948,-0.3833019781658421,-0.14163011287425575,-0.126981828043896,-0.09693513092098123,-0.23660537678069718,-0.2657500707110147,-0.19458324808222877,-0.2228046494428801,-0.309823224579033,-0.09238122979556929,-0.08222805967012445,-0.3906731066341026,-0.7310118711017146,-0.29247980681768515,0.08268298562521129,0.02862555039303254,-0.27004393040301244,-0.17609470622855955,-0.1680530632152742,-0.3078833861876349,-0.3530518011546207,-0.16983881192865757,-0.2714071165376354,-0.3044777116155466,-0.4228863311712604,-0.33714784213275134,-0.0663917988131469,-0.0966894072447581,2
9.7,12.775,4.6,4.65,11.55,20.125,4.5,11.8,656.0,719.0,289.0,309.0,646.0,1162.0,308.0,768.0,18.0,14.0,18.0,15.0,17.0,18.0,21.0,23.0,-0.5436210419246557,-0.36356734499303484,-0.1888727303143268,-0.175375419645239,-0.20908379657818565,-0.35523704322613864,-0.22145306181881463,-0.3060004926459002,-0.31803134178155806,-0.1868875936859416,-0.07470549555454457,-0.11248975063273949,-0.49317887733287197,-0.060727227055583165,-0.0502666102699885,-0.18671607155422307,-0.10591363091572917,-0.23219021098060746,-0.10714821571433569,-0.10295514312069741,-0.16611335509521744,-0.1333264122123337,-0.06480969794271106,-0.14942316674469452,-0.4889086495916294,-0.15839680562892228,-0.10848420253583414,-0.040836649613423946,-0.5115634729449369,-0.21263105724535883,-0.20054207868157806,-0.03812229706285481,2
12.725,16.95,4.775,4.625,13.15,20.6,4.175,10.175,823.0,1020.0,317.0,281.0,809.0,1218.0,279.0,684.0,19.0,13.0,18.0,14.0,17.0,17.0,17.0,17.0,-0.4774955063393328,-0.33608353996622886,-0.15996968979031628,-0.21743087182718854,-0.2517229746871146,-0.36971327678486077,-0.1554051111087792,-0.42718631159659487,-0.38350980427912984,-0.16203653791027137,-0.12096536345682984,-0.07936803329772008,-0.6342871207419495,-0.4850399364582462,-0.48001704882794777,-0.3300431272353416,-0.24583113441515114,-0.27952320691203025,-0.02011749725282727,-0.048514596653182786,-0.15383426779724244,-0.10084629241408485,-0.0957601114285864,-0.2708584680324732,-0.5410691122727439,-0.41741309528009246,-0.08880932431088646,-0.230546254247073,-0.5893821953927458,-0.39452635720038925,-0.3914349333141798,-0.12679761915979035,2
10.775,15.9,5.15,3.9,11.5,18.975,3.6,8.275,700.0,1062.0,360.0,224.0,684.0,1273.0,212.0,534.0,16.0,19.0,23.0,17.0,16.0,15.0,16.0,19.0,-0.7497115275704591,-0.5269337885650893,-0.5826967816493892,-0.37933400606469325,-0.4706536657121421,-0.32867039184457547,-0.25144605000967907,-0.250917890013755,-0.4841365907656203,-0.16859668169752545,-0.25643304639067954,-0.47570974096023727,-0.33235038577142945,-0.43175722052673265,-0.29563679199025356,-0.2152214357535508,-0.05768956873129474,-0.027561799180076754,-0.011564327616961221,0.03669892887894152,-0.453699451108993,-0.6023972913934935,-0.2449804954284078,-0.25073686091766534,-0.4153598181928225,-0.3064995060398343,-0.02492106488410045,-0.12330892040395136,-0.20936768342115683,-0.1737633736855905,-0.48867707300049756,0.10652363758433894,2
14.3,18.6,5.075,4.9,12.1,19.5,3.4,8.875,1001.0,1224.0,341.0,262.0,786.0,1124.0,227.0,517.0,17.0,16.0,20.0,15.0,16.0,14.0,15.0,15.0,-0.509733394062022,-0.19267956596750338,-0.029653723802864736,-0.11225574497619942,-0.523824504506184,-0.39930682192792727,-0.36669356776406975,-0.20384442892337135,-0.32588290630190336,-0.09085941498902879,-0.033436358764798696,-0.014655712806307933,-0.3274940766187481,-0.5766585792326356,-0.35443608732366366,-0.2623581557767987,-0.508773539232122,-0.4636958638221734,-0.2839250576802785,-0.17652099188841713,-0.0024111993076139106,-0.30501321463305503,-0.17692657928623345,-0.22813389548073446,-0.673095866221414,-0.4229733505442971,-0.2095370759738386,-0.2010749744087088,-0.38089876317424165,-0.26513717051935826,-0.21006937280453694,-0.15203961787025652,2
11.475,19.925,4.45,4.4,14.7,18.375,2.8,6.825,769.0,1206.0,244.0,253.0,945.0,979.0,166.0,417.0,18.0,17.0,16.0,15.0,17.0,14.0,14.0,15.0,-0.4545372407438609,-0.03179196870883855,0.44055124892743813,0.015568049730067009,-0.43125085469094276,-0.3614964257656498,-0.3375491173351804,-0.3151289488897987,-0.24885002561796307,-0.2606718817320355,-0.17583446661279786,-0.15617164330365552,-0.12749327568200372,-0.38332689685955296,-0.02900857046442353,-0.4595080305294217,-0.2532385738308036,-0.2550147970180537,-0.0357816508381592,-0.45671176069947256,-0.03748899188484416,-0.2588391306081944,-0.20322519679839413,-0.31293683001885436,-0.2998861440530696,-0.25996861808097427,-0.2699043113535182,-0.15821698808517284,-0.2479170739957505,-0.24716929453120273,-0.1574853435006698,0.07081279523582197,2
6.1,15.2,4.075,3.975,11.425,19.85,2.725,8.5,387.0,977.0,260.0,262.0,746.0,1126.0,161.0,492.0,16.0,20.0,19.0,19.0,19.0,16.0,18.0,17.0,-0.20252532159931858,0.10011051909117542,0.14406681786342437,-0.20102712412455437,-0.39134342067759725,-0.3578889220902517,-0.25681530845154504,-0.10012994561301174,-0.442827307105515,-0.5104825533826399,-0.1260668243740881,-0.12279549655784198,-0.43843678153027005,-0.20769443907604054,-0.29843221476029186,-0.527504083036831,-0.4669275881469607,-0.3634589322273227,-0.35177048963603497,-0.16796785813477064,-0.43307423911098697,-0.5705611828581584,-0.40260511486484357,-0.3552053379569921,-0.11039996642216854,-0.40289227785502885,0.11448610832270063,-0.14845173454962396,-0.44361336887757785,-0.40308868658232316,-0.16076089524003392,-0.22703905315756617,2
6.275,13.25,3.4,3.675,13.6,17.475,3.175,8.275,411.0,870.0,217.0,218.0,854.0,1128.0,179.0,543.0,21.0,18.0,17.0,16.0,18.0,18.0,16.0,17.0,-0.343551450826838,0.0826919647099373,-0.16815663487782687,-0.27328595167074987,-0.4208353270228709,-0.30641886942469054,-0.17247107477831528,-0.3466685357870337,-0.33401801951415705,-0.20228554258346546,0.05466575637334338,-0.19028542033111878,-0.2696861516263997,-0.20629087993342715,-0.16881134135652173,-0.13972600353235837,-0.35183280914573073,-0.22817694714744374,-0.1309656597107462,0.035844813096096925,-0.4281463940583565,-0.3417798132525618,-0.23853995063238592,-0.3165037786533858,-0.15558457350073412,-0.4346447771629433,-0.1034983294387835,-0.3649861907232322,-0.421088339295455,-0.4621159752780043,-0.1888209964324689,-0.22834274640098148,2
7.325,9.275,4.375,4.55,12.375,16.925,3.775,8.425,507.0,611.0,268.0,276.0,838.0,1032.0,214.0,542.0,20.0,17.0,12.0,17.0,19.0,16.0,18.0,14.0,-0.5617427540190468,-0.32429358367805655,-0.5180986755353214,-0.2578523405038588,-0.16187371151744084,-0.5417613440522961,-0.0650564638225106,-0.2523806871784236,-0.19791996973495424,-0.2957897937310649,-0.13784954170215794,-0.16807808014671943,-0.21891885744902143,-0.04021658492822858,-0.2203849553740997,-0.19269421266971798,-0.4435576797159731,-0.17681808383933695,-0.256844957327184,-0.16194234126319554,-0.5115581380548204,-0.5567005821891701,-0.5920430661489474,-0.3765349742052841,-0.20911937498759625,-0.36590978862815166,-0.2684509209212302,-0.3974543533414034,-0.5424594751646544,-0.3686489172423563,-0.39325222082452094,-0.45132901706649153,2
11.05,13.125,5.225,4.2,13.75,16.825,3.75,9.125,648.0,834.0,335.0,279.0,922.0,1027.0,228.0,592.0,15.0,21.0,17.0,17.0,18.0,17.0,19.0,19.0,-0.4748556379768611,-0.3968305968105645,-0.10213922876551676,0.026453742380010636,-0.668614190870624,-0.7688046000953608,-0.2511822672671192,-0.1287634291977113,-0.49627737301794883,-0.4448481993210216,-0.24470967121251772,-0.3815440617578849,-0.5950663326124556,-0.47419518209505723,-0.4156852768629766,-0.30538144660031635,-0.5997918468775263,-0.4577600796379602,-0.1838708293715821,-0.2229317269184346,-0.6129820892720456,-0.6573380642054959,-0.44768674723467927,-0.34003032182212045,-0.23268930086958534,-0.4345821083995454,-0.05506143723178166,-0.28339469880470275,-0.3764363576575353,-0.06522859428826128,-0.06934062282903364,-0.2752396537785553,2
13.125,21.525,5.45,4.05,17.4,23.075,4.0,10.35,884.0,1469.0,368.0,285.0,1055.0,1407.0,220.0,676.0,20.0,21.0,19.0,17.0,16.0,16.0,16.0,20.0,-0.9272159697437197,-0.8654860024653178,-0.5557881660535532,-0.12110167012627042,-0.7217703421457089,-0.554180208937796,-0.4266841509587223,-0.38025068250204047,-0.4500449038578683,-0.4185584130774518,-0.18198201362753097,-0.5622221923107514,-0.5119592296608226,0.10131166948281171,0.16606940719691962,-0.1722457022536792,-0.4804875753097754,-0.6714343447744865,-0.39124131993310496,-0.5083659514093303,-0.24413669702696703,-0.33670799843911015,0.020701652390675923,-0.20902722280703703,-0.0588641412725718,-0.31042829257277044,0.06891543481523332,-0.40814669444305496,-0.3069253439290626,0.041531019313918824,-0.005793713000068119,-0.251409707997535,2
9.975,17.325,4.45,4.225,16.425,20.1,3.2,10.5,646.0,1255.0,292.0,301.0,1011.0,1097.0,172.0,666.0,18.0,21.0,18.0,23.0,15.0,15.0,17.0,18.0,-0.3444629619797354,-0.1938594288973189,-0.2925000446459381,-0.22778851190999774,-0.5734427575733068,-0.28059762993329673,-0.37457500063040683,-0.19212637774610256,-0.610870581485703,-0.5043054627174037,-0.11795854954294697,-0.16024583458696706,-0.8463832367518728,-0.5451156262524199,-0.17159304374595966,-0.29597746778971856,-0.597136994460793,-0.41430680381549706,-0.305461295059755,-0.32003680831864145,-0.43240430570800187,-0.5539336177528315,-0.3129835143087766,-0.3262516869641263,-0.21989922149559601,-0.2742980678455395,-0.11470202949827547,-0.11491340681231214,-0.4508244824145976,-0.2276165283385525,-0.24742700618869434,-0.31723059140046667,2
8.875,14.825,5.025,4.275,17.15,18.05,4.225,8.85,561.0,1109.0,325.0,250.0,1234.0,1215.0,276.0,557.0,16.0,21.0,15.0,10.0,21.0,20.0,14.0,13.0,-0.30868360955501706,-0.10652808660041944,-0.1779135425344143,-0.31747236009295926,-0.8953192906816119,-0.5748839570180101,-0.1994988568420127,-0.18234481175393005,-0.6190871456791066,-0.6113796858446936,-0.34721143953524775,-0.36439531420479754,-0.1489836176849003,0.05944046054794639,-0.21611815174661722,-0.5837859577410429,-0.7544126292368345,-0.3410595730329557,-0.33516821366065086,-0.16379652405550288,-0.5883515953355856,-0.6204729467314745,-0.2323811479325237,-0.15245414993367967,-0.3380519296023852,-0.25520323486084434,0.0033977511250497514,-0.2957763915384152,-0.37418154953824756,-0.25286920459381124,-0.04803046608917356,-0.1988854849094781,2
10.0,16.6,6.5,4.575,12.3,23.2,4.375,7.8,666.0,1040.0,392.0,268.0,805.0,1625.0,282.0,478.0,21.0,16.0,15.0,17.0,20.0,19.0,20.0,19.0,-0.3797155664031326,-0.3569816757047796,0.13754861331469032,-0.23415080270873792,-0.4431310220235719,-0.3900591062787898,-0.14207056727692238,-0.17838031838899632,-0.5156289398402888,-0.5408034421360997,-0.18367105219938526,-0.20686381179445026,-0.24413767531168348,-0.3218565995374928,-0.16152953956772545,-0.12393018014705408,-0.524053714013735,-0.13693128401421753,-0.3081285449439862,-0.289264080507529,-0.7285023480256377,-0.47132825588113064,-0.3141693494200338,-0.23049901933162306,-0.41178426618052516,-0.5891075982364533,-0.1732892202541546,-0.43556426538060505,-0.09515837562012955,-0.2923762934028207,0.03620523348650823,-0.44206246195817195,2
7.4,13.325,6.2,4.4,13.825,16.45,3.8,10.95,503.0,875.0,365.0,299.0,931.0,1019.0,194.0,718.0,19.0,18.0,17.0,15.0,22.0,17.0,15.0,20.0,-0.41615240355901967,-0.12922574115858984,-0.2063776854270332,-0.1183395787578582,-0.5253861982195638,-0.5069563643789207,-0.19237239458600275,-0.021595184882597963,-0.4460239703291628,-0.5668781810582579,-0.17316685429152986,-0.22517585026948672,-0.43300507816439504,-0.34400589608644394,-0.2387179904235647,-0.3798530488809665,-0.5176240079696741,-0.20635330173094482,-0.42805894005717904,-0.26663199454232694,-0.2565295584994829,-0.05175629359551677,-0.2393225819814429,-0.13486759568299697,-0.20859514676928545,-0.4359331138306035,-0.11529711206070026,-0.2758664776531185,-0.43097546231898237,0.01926731395981542,-0.16706548845300623,-0.27293594563948514,2
7.3,13.625,4.7,4.825,12.275,16.15,3.275,9.55,486.0,797.0,315.0,269.0,856.0,1022.0,182.0,562.0,18.0,16.0,19.0,15.0,17.0,13.0,13.0,13.0,-0.5169794236048646,-0.379719129042816,-0.22480056390204292,-0.09907224933609786,-0.2001457719827835,-0.07307974722912726,0.10937725999998701,-0.07572642888288379,-0.6243977293340043,-0.321126338789171,-0.2614144595308765,-0.1323854493622295,-0.11422652017764622,-0.06498908238381124,-0.39650003165890196,-0.27633330940980355,-0.6841316004638681,-0.6134183453917977,-0.5429587305069205,-0.5292913292671982,-0.4053120406849861,-0.2714533349911807,-0.47043028975935186,-0.2880372803272938,-0.07709844228366056,-0.2894006057014283,-0.11822408632730683,-0.20920522895350116,-0.167296705627501,-0.2759735862959549,-0.059906243249476604,-0.11836024153476314,2
13.425,14.55,6.0,4.375,13.425,23.25,4.575,10.775,936.0,880.0,394.0,276.0,912.0,1441.0,292.0,610.0,19.0,13.0,17.0,19.0,18.0,18.0,13.0,13.0,-0.5156047875642708,-0.4255982937361102,-0.1047807881755045,-0.12677484422094637,-0.119299493393243,-0.2549756805529544,0.18450414892765674,0.020927718382721148,-0.4744500784974196,-0.3819034121712788,-0.3216233797624981,-0.21940042878266408,-0.32035619794822445,0.15320475833208924,-0.2013922383900439,-0.39424815475219493,-0.5145577888274251,-0.3415144559420717,-0.42500371967777145,-0.5484241351167988,-0.6867185011475996,-0.5154832969571714,-0.6000352542195022,-0.5435013896957761,-0.5454743677785695,-0.48076525344030724,-0.3656423612097433,-0.3388372449672756,-0.517744676142906,-0.22801219178363305,-0.17732721505652405,-0.17083603671799136,2
13.15,19.85,5.625,3.675,16.95,21.55,4.125,10.725,901.0,1173.0,385.0,233.0,1065.0,1418.0,274.0,678.0,18.0,20.0,16.0,12.0,15.0,19.0,18.0,19.0,-0.5852310427785802,-0.3627676835995186,0.0034360633362858183,-0.04627722134990856,-0.09356237920870186,-0.07508106978461151,0.016801824835883272,-0.25668449866960985,-0.6136015552985062,-0.3193606810390999,0.040363841127268714,0.027622420937393654,-0.49235259251427466,-0.44837326296874597,-0.4977190721835264,-0.228602877839765,-0.3840008725297153,-0.12642398193723242,-0.44881388296350366,-0.293686501035031,-0.6348203530925645,-0.55460335629274,-0.24235751459096133,-0.2638536053279456,-0.5195396762623721,-0.3881991069199303,-0.13239856624794313,-0.05578054682074868,-0.4942155865430818,-0.15735751470385717,-0.32848306198485167,-0.3116697413406309,2
13.05,17.45,4.65,4.875,17.325,16.15,3.525,9.475,960.0,1145.0,312.0,279.0,1122.0,1024.0,232.0,612.0,15.0,20.0,17.0,14.0,22.0,19.0,19.0,17.0,-0.4150700335947463,-0.16181698960410842,-0.05746097697487874,0.09282938239232448,-0.3323948090730782,-0.29762748229662733,-0.25065114408583156,-0.33370038317824474,-0.4367886329194646,-0.12771658745337455,0.2373311065346542,-0.13319242947798363,-0.35869581617449403,-0.4388615469879631,-0.3268333677893773,-0.18482753043651684,-0.6533109613183247,-0.46196386695198466,-0.4710865015296785,-0.16939944491138897,-0.5015525127727596,-0.4042873076279836,-0.3052627692665183,-0.11390596041674132,-0.5491754337713869,-0.370039956645623,-0.07637841282896143,0.08834253388986756,-0.5593461899160935,-0.15910773864422395,-0.6074171243863079,-0.4206813738714234,2
9.4,12.725,4.1,4.2,16.975,18.725,2.975,9.25,675.0,787.0,280.0,306.0,1245.0,1209.0,188.0,620.0,20.0,16.0,14.0,23.0,23.0,19.0,16.0,21.0,-0.6441555431671125,-0.33761994794516675,-0.00162584275071958,-0.02321312055817115,-0.25164246834515175,-0.3696094850082274,-0.13574436272963217,-0.3366559620417677,-0.30207867295561397,-0.1735069769866595,-0.12593173653092243,-0.07677631527855079,-0.7023204498957879,-0.4115609632376043,-0.41820999084907085,-0.4014315094613191,-0.910551697789757,-0.21893151518364404,0.11894277051628614,-0.036187358453580495,-0.38124852247752133,-0.008948861306507298,-0.31267201762515157,-0.27311592407292445,-0.42404589197103826,-0.09963458661355691,-0.26599231408564583,-0.14230110922585384,-0.6657986377638965,-0.5593456234167878,-0.5371511074571148,-0.593129326297122,2
13.475,11.55,4.775,4.075,13.875,14.35,2.875,8.0,893.0,731.0,255.0,200.0,911.0,874.0,159.0,504.0,17.0,16.0,9.0,7.0,19.0,19.0,13.0,19.0,-0.3565605333174618,-0.02331173020128439,-0.13754179724571267,-0.25774849036943276,-0.46993300270291727,-0.426617386526951,-0.3981478883731755,-0.34184028974625674,0.08067324575675285,-0.12407561841593799,-0.20493533965703262,-0.20960100566191833,0.1547314064934404,-0.14083254925540392,-0.2504982551551097,-0.14998222511869178,-0.6608888876357023,-0.5672196335146561,-0.44753063869246945,-0.3638875440780271,-0.23642971487834785,0.004992264429878735,-0.3521447588632681,-0.29107876549022244,-0.09755315880848384,-0.029148120919434577,-0.21764393972690477,-0.009294082972310425,-0.4848733456003403,-0.3392703069896999,-0.3216336618444689,-0.15229125535811,2
15.25,16.55,5.025,3.85,12.0,16.7,3.425,8.825,946.0,1013.0,241.0,161.0,768.0,978.0,213.0,552.0,12.0,16.0,11.0,7.0,19.0,17.0,14.0,15.0,-0.4396198178474132,-0.27290834996265584,-0.2725560706911144,-0.2541532624513549,-0.5412276714257378,-0.4558635700997067,-0.4102720163413475,-0.26014331484843883,-0.013994211554795142,-0.03383693842481378,-0.21293087108214764,-0.2884061975394228,0.2446083985960895,-0.2390031762284952,0.035993960078612074,-0.2979377434122162,-0.32686414523323215,-0.08159839801256642,-0.3345905664249977,-0.24379945613658982,-0.22236105786996885,-0.2304294934844332,-0.2510654134072229,-0.36757197984035794,-0.07190726153248753,-0.26517294154212934,-0.15211832088533664,-0.3502105898078532,-0.11672197828233281,0.05042024974121548,-0.02400628699603893,-0.4046301496841998,2
14.65,14.075,5.825,3.8,13.625,17.8,3.2,9.45,955.0,939.0,396.0,211.0,901.0,1007.0,197.0,584.0,18.0,21.0,20.0,17.0,15.0,21.0,13.0,14.0,-0.5660244343579988,-0.3871630808564964,-0.2659767363092607,-0.23929111564633548,-0.3915190698649993,-0.09317816562291474,-0.3146761622417746,-0.08394284744117654,-0.45240897766534616,0.10526573332488348,-0.15909184839536708,-0.22013136813052334,-0.048819093602181035,-0.06670861010140834,0.1635804970767111,-0.26436128247082286,-0.410662391027092,-0.08744643986888219,-0.38489717722320854,-0.22920191611281868,-0.07421518092147102,-0.06020120616265705,-0.0959659023136222,-0.3245524508261546,-0.019229333159173728,-0.17692717194651053,-0.13492324640956593,-0.43247387802187337,-0.34014368349021357,-0.3316727224165763,-0.017897285736630214,-0.46255404254954163,2
7.35,11.9,4.15,3.55,11.7,17.35,2.975,6.825,497.0,764.0,273.0,209.0,774.0,1186.0,196.0,493.0,15.0,20.0,16.0,18.0,14.0,18.0,17.0,15.0,-0.44082825460107017,-0.17919809172046666,-0.0640414669365788,-0.15058079010386463,-0.6360767367866014,-0.4978479084204771,-0.09664272448825768,-0.22518022726634282,-0.40449711289273915,0.08135489657600334,-0.09320539537454373,-0.10174500226461006,-0.24354933168386134,-0.3478864284905324,-0.22263652122257116,-0.5038829117609572,-0.5164123267766004,-0.22530980453279018,0.07531664926141307,-0.15548400800241166,-0.7107240951639022,-0.5828914429525869,-0.21699218295181708,-0.13219381107592684,-0.40548962973875496,-0.39548441840393145,-0.2224349085554339,-0.394077429348404,-0.47181504460032936,-0.27472702109870756,-0.27380526633667185,-0.4403514030221327,2
11.525,16.35,3.65,3.4,12.875,16.125,3.1,6.2,775.0,1061.0,266.0,183.0,772.0,1073.0,200.0,424.0,17.0,15.0,18.0,15.0,13.0,19.0,17.0,19.0,-0.5442081958057675,-0.13743559892937432,-0.4119655087847348,-0.34189587527314086,-0.4993882127244475,-0.31417344874672454,-0.3636612650225096,-0.4402723625624939,-0.777219385637922,-0.36857779189465034,-0.0345496622352094,0.06089279688156485,-0.09969760988163241,-0.11963484535481475,-0.2286209469356149,-0.21145516015269028,-0.31678553752606387,-0.05304068656885292,-0.12241987858480295,-0.1943408731770061,-0.3187997821005445,-0.11842627569402898,-0.3297258966142536,-0.1220780140446189,-0.4705466226223684,-0.1163925790426137,-0.2419815799348016,-0.29341487396076876,-0.3510991321091395,-0.14085425367242305,-0.10215601930236329,-0.19340578384002122,2
18.5,21.075,4.925,3.65,14.675,19.475,3.775,10.15,1275.0,1443.0,343.0,198.0,891.0,1160.0,239.0,658.0,20.0,17.0,16.0,12.0,18.0,20.0,14.0,18.0,-0.5327500433736098,-0.48964060835051443,-0.22344508840362975,-0.42924936239325295,-0.4482716658975845,-0.30503719866689843,-0.0966371599355975,-0.32062074348597625,-0.47913919209439443,-0.3617505714691494,-0.14894284600857888,-0.22439297071764347,-0.2632634420367188,-0.273796795798927,-0.3201615903224289,-0.3254406835439973,-0.4669338774717089,-0.027730351923031707,-0.16396419082928648,-0.3110379042544199,-0.2347635480483809,-0.059180905633722136,-0.21835688133963682,-0.16423726535583838,-0.4301084533649836,0.0037382527458166867,-0.16104629897721312,-0.3272218636479228,-0.5117503124258221,-0.3662926962897384,-0.29998131995294475,-0.43344183951174653,2
13.7,15.1,5.725,3.05,13.125,21.0,3.225,9.4,906.0,915.0,372.0,185.0,951.0,1231.0,169.0,633.0,16.0,19.0,14.0,14.0,23.0,19.0,17.0,21.0,-0.3386623811036872,-0.557571636074107,-0.1287632158031656,-0.3943943633548098,-0.403959941432686,-0.3677893986901865,-0.05172029940288451,-0.12146829785528925,-0.5164772301346724,-0.3056692806173049,-0.21792789973211005,-0.17614377364324374,-0.38598053549880024,-0.2752629078493461,-0.22113339459142803,-0.4412224413134898,-0.5797282309757502,-0.0933889658572697,-0.09444360864929598,-0.21158209976978468,-0.3684566345499062,-0.4016271552769016,-0.3406758351631041,-0.27001246939200135,-0.005762195349814913,-0.03289374179576855,-0.2230005570709781,-0.26493757111609334,-0.49556654575620857,-0.15469677827862202,-0.06284142625157191,-0.21462077161220636,2
6.45,13.25,5.225,3.85,17.15,20.15,3.95,11.15,380.0,789.0,335.0,229.0,1096.0,1122.0,228.0,775.0,14.0,18.0,19.0,16.0,20.0,14.0,15.0,24.0,-0.2159855226916542,-0.07704166689860102,-0.040696996909791554,-0.0705932286756218,-0.19222592106455008,-0.182948508892246,-0.17551935531553453,-0.04100390551859803,-0.3817739303323409,-0.23824755615916537,-0.18575010229744957,-0.1044951873052423,-0.4691478775354758,-0.30162011305494646,-0.23221999151827216,-0.2603672926048026,-0.584435511250268,-0.29703852908419215,-0.1333696382998504,-0.06518484469852102,-0.3869399772996909,-0.40997829400072966,-0.4063068879102034,-0.45134063038605077,-0.30936707617977843,-0.1324785757906078,-0.2861081270726726,-0.32863011428135697,-0.35235011019109574,-0.028516152390877535,-0.16620118620750018,0.10800322378115838,2
6.75,15.325,5.175,3.675,13.3,18.35,3.375,10.2,453.0,946.0,351.0,223.0,844.0,1053.0,224.0,681.0,19.0,21.0,19.0,16.0,18.0,20.0,18.0,21.0,-0.5664516874972914,-0.2267389154187356,-0.171614687873442,-0.1870947647620076,-0.3659373865862255,-0.22937459669715077,-0.3726420240689609,-0.14219062982131908,-0.5721710421692371,-0.5043609944440829,-0.10466556632908078,-0.14741746306917983,-0.35384768252226323,-0.29021660462684334,-0.18758050479160732,-0.04365590013814154,-0.3757539413939735,-0.32277413093137325,0.1282361000383144,-0.2492050673197013,-0.17988948779881084,-0.21390723137798096,-0.2751805092450059,-0.30119719056475275,-0.3736078279533604,-0.10951976699198764,-0.06663760806050928,0.04620984500759174,-0.46557076285441273,-0.20099310517489663,-0.3734212856802557,-0.0776699604892579,2
11.3,13.7,4.625,3.275,15.6,20.3,2.825,9.425,776.0,762.0,302.0,183.0,1045.0,1227.0,158.0,628.0,19.0,14.0,14.0,10.0,18.0,15.0,14.0,19.0,-0.6197218035555759,-0.5127197143296098,-0.37278152751191285,-0.320754086363208,-0.09390193947834437,-0.35301989834370606,-0.2251376038731783,-0.2913625912212712,-0.3714541108793447,0.021835916426328497,0.20913812299658524,0.048835863965446175,-0.0969704928876437,0.1419800741267007,0.011422460650828154,-0.4522775403977193,-0.8071269426205008,-0.5281643989090062,-0.35727624949071285,-0.23367631227951455,-0.4691077155242931,-0.2838572030271008,-0.09875688283295518,-0.19273943560468296,-0.2506036725673604,-0.327407004399644,-0.1009831003077444,-0.06083126848763293,-0.43773511697575457,-0.05024066449647254,-0.3551898649464526,-0.29823241425290553,2
11.1,10.6,4.2,2.7,14.025,23.525,3.3,10.8,704.0,565.0,271.0,164.0,925.0,1617.0,186.0,702.0,16.0,15.0,10.0,17.0,19.0,24.0,17.0,20.0,-0.38024874592456637,-0.16295528684438698,-0.01705259283380668,-0.11139330098215754,0.008025773283277577,-0.3058812797485789,-0.029047578328797546,-0.250447533859585,-0.38900987644304785,0.028466741218282948,-0.030947075947277046,-0.15121625830086452,-0.20102654719655877,-0.19700204516903733,-0.23736523401733683,-0.22965426552386167,-0.7418906874071981,-0.5944415225331146,-0.24158505644463749,-0.08994689898200287,-0.8174883291186004,-0.43820508539766495,-0.1959890258623102,-0.08615896718529403,-0.13481167107318126,-0.1605423240945618,-0.18692672855883705,-0.1807185885634938,-0.4309864019818766,-0.12504127007733878,-0.15283461462803805,-0.11710689167000289,2
9.4,13.75,3.825,3.725,11.55,16.925,2.4,8.3,641.0,803.0,202.0,229.0,838.0,1196.0,145.0,461.0,20.0,16.0,9.0,13.0,18.0,20.0,13.0,18.0,-0.4932403203939618,-0.3170828692814369,0.034179238402436876,-0.17449692540706466,-0.273473392629706,-0.27513763956352777,-0.12115073737910892,-0.23185009625685635,0.11465963096365149,-0.1530979930374665,0.049439953226187106,-0.1365086218774667,-0.305896231000292,0.030955157951989613,-0.21874696211651734,-0.37057540711413944,-0.852811645885241,-0.39289166680671345,-0.05535330255436096,-0.1124892568351256,-0.5215646231892276,-0.18065183630905046,0.00902012742320698,-0.022975275031219777,-0.2143442050765966,-0.04380660155181885,-0.27962475060485703,-0.3415263584924255,-0.39102044050469015,-0.4616421038466879,-0.3896826363117991,-0.11889366152237896,2
8.4,17.775,5.65,4.4,13.425,19.5,2.475,8.7,557.0,963.0,347.0,259.0,920.0,1254.0,153.0,558.0,17.0,11.0,21.0,16.0,18.0,20.0,14.0,19.0,-0.597290620899924,-0.44008010177410545,-0.11151782541302513,0.0011966008086746228,-0.11559129812375513,-0.1948347799837455,-0.19257416041839262,-0.2923162762269778,-0.25136207861503773,-0.06449430549237807,-0.03639538434949947,-0.30660672581704934,-0.3590918641318331,-0.25667336041282096,-0.22057806830880855,-0.40340472788314946,-0.4391198932402731,-0.03731850795246011,-0.08165819931701876,0.07808288194368158,-0.4599771902963201,-0.3134451718577119,-0.33657665258002256,-0.08662350111437679,-0.40577737844830286,-0.26594374764453943,-0.2780650331373985,-0.07949676143401602,-0.4495794970169051,-0.28201563006625263,-0.4209724762584102,-0.2900136599506878,2
12.975,17.15,5.725,4.65,12.125,22.675,3.1,10.9,784.0,993.0,341.0,263.0,741.0,1367.0,171.0,606.0,17.0,15.0,22.0,18.0,18.0,16.0,14.0,14.0,-0.3976441193243879,-0.4613261884030842,-0.37052889564732366,-0.11899979395048595,0.002095538575073835,-0.3834419267788536,-0.1364381767241111,0.06630973795799545,-0.18183549668635177,0.11374650802160954,-0.024620634962443655,-0.12534300877066487,-0.3478047024343505,-0.41822074158624595,-0.28719193580471924,-0.3644357647753383,-0.1119189886628163,-0.22500665452324103,-0.13202130269336065,-0.07501731978932147,-0.1324363062437481,-0.017128736100675307,-0.13548218948135432,-0.49267604635270407,-0.09508138241729351,-0.05121127812738437,-0.03454478498890511,-0.5192661456526363,-0.210598244849571,-0.5309967751410256,-0.2520946579875113,-0.396812984148826,2
