0,1,2,3,4,5,6,7,8,9,10,11,12,13,14,15,16,17,18,19,20,21,22,23,24,25,26,27,28,29,30,31,32,33,34,35,36,37,38,39,40,41,42,43,44,45,46,47,48,49,50,51,52,53,54,55,Gesture
9.8,1.75,2.6,6.05,10.325,6.0,37.05,11.3,682.0,105.0,146.0,394.0,771.0,358.0,2352.0,696.0,21.0,13.0,18.0,18.0,20.0,15.0,21.0,18.0,-0.4650231164307057,-0.19000826405662843,-0.04529976089293573,0.02730218243942919,-0.2523838037371166,-0.33122491604750176,0.035725903377615484,-0.0893919797886143,-0.22377893260484538,-0.11400986324768657,-0.27193803275369355,-0.10980974592527655,-0.5052973672547969,-0.3781905872247395,-0.4322210706310427,-0.09853934672534276,-0.8796582175672623,-0.5473028606772519,-0.6355600441562617,-0.37213699079710183,-0.325742000736699,-0.312160300221754,-0.36362528084325724,-0.12212806984061901,-0.5272796119524331,-0.45732297772977165,-0.18722607245600903,-0.0055882635662083055,-0.44125424880733494,-0.7364103270094061,-0.14730239562961495,-0.26191391128055747,0
13.8,1.825,2.35,7.0,9.675,8.2,46.35,22.05,926.0,118.0,132.0,454.0,605.0,515.0,2827.0,1421.0,19.0,16.0,18.0,19.0,18.0,17.0,16.0,20.0,-0.5178479088410847,-0.36933179942880456,-0.21911030377944735,-0.189983619790355,-0.486617242018406,-0.4892581267872303,-0.14595456513476937,0.13814338197908096,-0.17877476454288635,-0.03018860973329816,-0.12833242202807207,-0.02148724537104901,-0.5411383870625387,-0.38505937516870525,-0.2698094503654858,-0.2552370786958019,-0.5636911943006487,-0.48936282701416833,-0.5055608972895973,-0.2703395614936695,-0.5057272887277741,-0.4897017160202684,-0.3313732219938883,-0.0897180970720199,-0.36568527537998996,-0.4829933026037587,0.03410520745532209,0.05833101361888239,-0.7287842823507565,-0.5950938440752277,-0.4956907756155147,-0.33998051239379656,0
16.75,2.8,3.275,8.225,12.875,15.6,59.925,25.625,1153.0,176.0,215.0,581.0,911.0,871.0,3420.0,1735.0,22.0,15.0,14.0,18.0,22.0,16.0,17.0,19.0,-0.5823877820845795,-0.4289864313773914,-0.3670613799521514,-0.3669849453503081,-0.44614358335962156,-0.06917265411050072,-0.03552458236524121,-0.06737347446296629,-0.35737283062450226,-0.19545778666770214,-0.11486226451382466,-0.23261265919467863,-0.5548498452026117,-0.3023007079389704,-0.314194728897064,-0.2033301156517044,-0.9122576109157242,-0.5598184397536397,-0.5248725158508639,-0.17989141296768857,-0.45115556877137614,-0.39284047378842574,-0.6811483666813399,-0.35151282323973143,-0.29232583772642634,-0.1590763048044326,-0.17551942798761896,-0.12399274937165129,-0.5618133247283432,-0.3677739972451847,-0.3785273504176857,-0.21047596638364285,0
11.275,2.475,3.05,6.7,12.55,14.525,56.0,26.1,756.0,159.0,195.0,455.0,789.0,754.0,3334.0,1830.0,18.0,18.0,19.0,19.0,21.0,16.0,18.0,19.0,-0.7027921401271005,-0.6760467356996223,-0.42736440663128283,-0.6205429070974797,-0.5709403156062949,-0.20743135352719996,-0.3227084797928926,-0.17443670889955173,-0.3914939304071798,-0.030642413322404034,-0.26342324570618664,-0.20339941110814969,-0.5041999892556598,-0.03457641362675398,-0.3474415136315582,-0.24988281766847656,-0.4697610751343511,-0.42465912913229437,-0.12260964646384859,-0.3900032453993061,-0.3165766826604184,-0.3535893815952957,-0.5449379852851219,-0.397858466898398,-0.2386734698359973,-0.14978498652211947,0.028432677434900765,-0.12116783549886692,-0.7823997099305339,-0.6658263743955017,-0.5521027739134968,-0.4524595780546049,0
11.35,2.05,2.575,6.1,8.475,8.275,41.975,15.1,846.0,131.0,166.0,421.0,566.0,476.0,2747.0,1007.0,21.0,16.0,15.0,16.0,20.0,19.0,19.0,17.0,-0.6855282640978285,-0.37465031526303194,-0.31084412677811674,-0.42593226444641974,-0.21592699348827524,0.143046954208587,0.00981959580903001,-0.10508930767473675,-0.3629747695285097,-0.07867611866059596,-0.14758655904714077,-0.2536278666345109,-0.483005475462549,-0.034689630689799904,-0.27409994590664827,-0.2990285049536388,-0.7647185109060792,-0.720279818294243,-0.4385120986782955,-0.18228048815833892,-0.30722000218704804,-0.2713906770624093,-0.43917246701648144,-0.14303414560717292,-0.550791434038732,-0.5740012330702042,-0.3657411610644054,-0.10677838965112772,-0.44060002913410223,-0.37645003028539836,-0.0619198567876764,-0.21133601849569028,0
14.35,1.4,2.1,6.1,8.0,5.325,25.4,9.75,1016.0,81.0,102.0,322.0,525.0,325.0,1538.0,641.0,19.0,10.0,7.0,12.0,16.0,20.0,18.0,19.0,-0.6690233521850754,-0.4462923130432719,-0.1931183052376525,-0.32633414373612274,-0.14737268780286056,0.07897838964142673,-0.23699729321800617,-0.16096351674662415,-0.08976968505087542,-0.07943602278435118,-0.3458517777770525,-0.35860468903023063,-0.20093081977197028,-0.0713999946522464,-0.27501429384056775,-0.3776708764990273,-0.5887878075651418,-0.3836772610002557,-0.12578983653718037,0.0903089239218906,-0.254394201030663,-0.49187487706670807,-0.10882283856606852,-0.23599098582334738,-0.2364366291662754,-0.3254425686284979,-0.08011208155778023,0.06721956184335141,-0.16705940996283977,-0.3723830577039626,0.004816904311430343,-0.18066373481744868,0
20.125,2.825,3.55,9.925,12.075,13.075,52.5,18.275,1341.0,165.0,222.0,659.0,755.0,775.0,3563.0,1153.0,17.0,15.0,20.0,18.0,18.0,16.0,22.0,16.0,-0.8242176148054068,-0.8207039389913956,-0.6035662628622908,-0.5874015042423079,-0.2649072984721066,-0.2859476369927287,-0.17539392366292475,-0.14858079908766714,-0.4927057160446602,-0.28812283208973194,-0.43200159891703643,-0.4907308503656506,-0.3956870586916087,-0.3570841812707393,-0.1898465974898279,-0.3114852168881036,-0.5172495778753975,-0.521282290386232,-0.33609228596671104,-0.3203843271370543,-0.1817617970680462,-0.5915847672297894,-0.2561060784930584,-0.45336000991711045,-0.7260955171835706,-0.5602074667671535,-0.38367721190915055,-0.5593534021301312,-0.5766863065701364,-0.3155520167197562,-0.2097039731624547,-0.30708427975982505,0
27.35,4.45,3.5,9.9,14.225,24.85,80.625,36.15,1901.0,287.0,242.0,649.0,877.0,1327.0,5049.0,2565.0,20.0,20.0,19.0,21.0,19.0,14.0,20.0,20.0,-0.87172243859639,-0.7312874075185282,-0.6728114076987722,-0.5652608034694271,-0.4712479522484831,-0.27452286428977113,-0.33140274922599905,-0.3062073761955779,-0.7464686203271483,-0.5751475191861791,-0.5840046589809685,-0.32643640706517085,-0.4944405201275452,-0.3997140457131996,-0.38316360160658935,-0.2600068973413623,-0.6985411193943777,-0.49645372379305697,-0.667150348616778,-0.549161174215978,-0.47427178856631086,-0.47758873072716307,-0.6054572141744474,-0.5463059015787823,-0.5325107901108546,-0.017800508667668205,-0.10131887407753153,-0.3649816935670889,-0.6578113966612251,-0.2936492156409988,-0.45602139796663826,-0.650520894697355,0
19.325,3.125,3.9,10.225,11.725,16.325,73.65,28.875,1138.0,219.0,234.0,648.0,762.0,915.0,4474.0,1982.0,17.0,14.0,13.0,18.0,23.0,13.0,22.0,16.0,-0.33241970524389025,-0.24221865261383094,-0.3910035802227658,-0.14754058931908082,-0.5142834181810393,-0.22002456152238975,-0.306854593352144,-0.15551353091602166,-0.4051055684863469,-0.5198106533951142,-0.3125383419862613,-0.31709237264010925,-0.6103014983549714,-0.5117280908266812,-0.3821946390142141,-0.2546969487464426,-0.46455435019044916,-0.35810284397883657,-0.24752528707360594,-0.3367715220224579,-0.4859591832455877,-0.5933554588255686,-0.6032515753192458,-0.6341259070679218,-0.3667089916828941,-0.16328611568961257,-0.0828560988944268,-0.30370478173398074,-0.5500412941451263,-0.26614313807303897,-0.25265998952761043,-0.3563684050184338,0
14.8,2.975,3.5,9.325,11.525,8.95,54.875,19.95,1044.0,193.0,206.0,599.0,781.0,529.0,3604.0,1209.0,19.0,13.0,15.0,17.0,20.0,16.0,19.0,17.0,-0.775802647420093,-0.5008295887584685,-0.14518127852214618,-0.15616334443855776,-0.3379036779374593,-0.010052155410518803,0.4222171546761799,0.09581126806335909,-0.464863954745415,-0.4196316302498459,-0.3736531303153345,-0.18447013895883652,-0.5147662038461208,-0.7511620421119074,-0.4321428794902042,-0.5058599096959611,-0.7395165707014546,-0.4105823686045386,-0.5892037834834908,-0.3938806252509142,-0.38850832478950287,-0.4018125822850834,-0.4282431930014258,-0.3112374001097242,-0.5217614466405277,-0.6132328036884624,-0.052819757244265624,-0.27175961188672004,-0.46088402197576556,-0.36044827633374,-0.46005677471818807,-0.351738351436469,0
19.075,3.925,3.775,10.9,11.425,12.3,58.1,24.5,1262.0,238.0,248.0,683.0,719.0,635.0,3721.0,1596.0,12.0,9.0,21.0,16.0,17.0,14.0,12.0,14.0,-0.5079494931188867,-0.3670229116728861,-0.4470288498637841,-0.5005246691592147,-0.4110964442156081,-0.2858114889308597,-0.39950790080805204,-0.4006048291555644,-0.418656498134649,-0.11979298292402285,-0.1129974362786908,-0.039519657260168754,-0.37818338728863676,-0.4262567412554924,-0.3813795924221945,-0.35102902647051026,-0.5942469814202966,-0.4396278437592925,-0.41109378626082327,-0.38921727769756803,-0.1455162591479162,-0.24637598062242205,-0.44351787841243934,-0.34611402253004137,-0.6872967523005026,-0.4739932128408876,-0.440115257712674,-0.24390313496936983,-0.3808180603474303,-0.29556598855512445,-0.31199494689301965,-0.3011324545574688,0
13.95,2.85,3.25,8.425,10.425,17.375,63.6,26.775,897.0,185.0,198.0,507.0,725.0,893.0,3694.0,1629.0,22.0,14.0,15.0,15.0,21.0,12.0,15.0,12.0,-0.5050981598638385,-0.33666142798219534,-0.23240124851044594,-0.1129689983138605,-0.597012981148454,-0.33106900178643967,-0.30792000752473464,-0.16231340046935316,-0.29287467263315403,-0.3122657572071188,0.020912298531260833,-0.278456702353352,-0.2482232051875437,-0.6764114382513648,-0.24425448853068768,-0.4607676934562025,-0.6278899777901025,-0.32434750522636424,-0.4006537772575666,-0.1915152481339854,-0.40630557487880153,-0.590700968766597,-0.5607343517025325,-0.3337763056043369,-0.42299912182597815,-0.42810726060679893,-0.494160395527449,-0.14657151390155906,-0.4142596829616443,-0.44454935336624585,-0.3719513044878967,-0.1954051808758596,0
16.175,3.95,3.625,10.075,12.25,20.625,72.975,29.25,1125.0,253.0,245.0,664.0,838.0,1160.0,3666.0,1768.0,22.0,14.0,21.0,19.0,20.0,12.0,13.0,15.0,-0.5735832657459161,-0.27775172049157376,-0.32109190580658586,-0.3172194326405126,-0.5427329188703243,-0.3731592098483246,-0.3002659714837711,-0.37904294863982646,-0.5722484271976762,-0.40233629761352635,-0.2781510553523483,-0.43729819784028545,-0.5131838467182629,-0.5634252360227566,-0.2906680901080415,-0.3478827379210766,-0.8268600058661616,-0.7201934613913896,-0.582367607469743,-0.43566837180627166,-0.5457761059884503,-0.6119661306283093,-0.6741832759721388,-0.5312679532166465,-0.05071575072045681,-0.22168924789136438,-0.253930410385732,-0.030500659212658963,-0.6279979706165458,-0.5907995213763799,-0.6654902976115357,-0.3964364665095085,0
16.9,3.35,3.1,9.85,12.075,11.8,50.8,21.95,1153.0,214.0,188.0,638.0,764.0,627.0,2630.0,1337.0,17.0,14.0,13.0,17.0,15.0,15.0,16.0,14.0,-0.5923291810553094,-0.539996399970383,-0.12642842704063878,-0.28758272030382803,-0.4238430852047849,-0.4631041256539369,-0.21527238075352145,-0.3518403724673999,-0.4766190306425643,-0.453616873906038,-0.4798789486667547,-0.3265152976345158,-0.6253732760829328,-0.5610434405308327,-0.5143178536385387,-0.4509477247219807,-0.6875584964229732,-0.7788603346962782,-0.47665927993856033,-0.41539092814625395,-0.12690310252150863,-0.4039214822700764,-0.5055707775421107,-0.08665265051347416,0.12305859243571095,-0.38436855596593134,-0.05708468271220324,-0.10143240493519168,-0.296049526902339,-0.4123913397323045,-0.36035591189519073,-0.2635507727040964,0
18.15,2.95,3.8,12.275,10.0,10.125,46.45,20.9,1209.0,164.0,234.0,759.0,675.0,551.0,2747.0,1355.0,17.0,12.0,15.0,21.0,19.0,14.0,16.0,22.0,-0.6353512032779298,-0.4563448783491074,-0.547585466072129,-0.4391558302464938,-0.419407804774781,-0.4483995631817019,-0.33101794413992935,-0.23647206460959475,-0.25930787503459446,-0.05846135579589028,-0.28992134391705043,-0.28086687771877106,-0.3097137800229976,-0.1704221629706086,-0.22015744980071258,-0.2931092184982555,-0.4713161295690391,-0.3577749568179057,-0.023930846715556807,-0.18013927086026166,-0.273083862849214,-0.39783373853228393,-0.4391447545495669,-0.3504574503906853,-0.31103156475498034,-0.40249626404572986,-0.24983683186003341,-0.21665547633023363,-0.4023086138549923,-0.3230633109300684,-0.1637129525847845,0.06130635867996436,0
18.65,4.45,3.575,11.4,15.925,15.925,47.4,31.4,1179.0,275.0,244.0,780.0,1064.0,842.0,2735.0,2097.0,15.0,15.0,16.0,18.0,19.0,18.0,14.0,16.0,-0.4021338928182131,-0.27688650581107577,-0.41506195439465954,-0.319159343516059,-0.6241831286767173,-0.41162871765051917,-0.44806090899250667,-0.4686797243911158,-0.5507573133175224,-0.2564506269161492,-0.2728979270965871,-0.32927768454207534,-0.5249867859585937,-0.3771063709108744,-0.32591300907843324,-0.42975640628761524,-0.7593544280284115,-0.6689942852092858,-0.5227659713426138,-0.43587113532135596,-0.25668632620502685,-0.25652272651681746,-0.45480466364859223,-0.4267354452109996,-0.15510811893584264,-0.3037154690410193,-0.2128466274206997,-0.13570285097141035,-0.6711896855610437,-0.5405640525643173,-0.3333247945634853,-0.33303136658803856,0
16.15,3.975,3.35,9.925,13.0,20.2,69.525,36.825,1089.0,270.0,206.0,672.0,904.0,1220.0,4472.0,2583.0,18.0,19.0,17.0,18.0,20.0,16.0,21.0,20.0,-0.5738341368040745,-0.3784143645981255,-0.19181591279072321,-0.09889432967095844,-0.82099213042138,-0.5345928513044532,-0.3300803481614082,-0.1824151044739048,-0.2968664682928401,-0.18061551039209248,-0.2132256950331414,-0.25049691876371244,-0.6454329665558052,-0.505750893645704,-0.5164620121480934,-0.33551461242454866,-0.7825721322047735,-0.5177126884280178,-0.12858761755575726,0.22941025791380912,-0.4769152461808693,-0.40734119709791083,-0.3620234680471494,-0.29319061818892617,-0.7215042711639528,-0.39914824844168606,-0.3123801295267025,-0.2812443135218586,-0.6995641367671194,-0.41460994340887025,-0.2325546078953929,-0.3843755322269242,0
19.125,2.6,3.175,11.5,12.85,14.95,47.3,19.225,1360.0,155.0,185.0,735.0,936.0,831.0,2528.0,1291.0,21.0,14.0,16.0,16.0,20.0,13.0,15.0,17.0,-0.640538552966226,-0.42946877184080706,-0.42034182370439555,-0.5665816642674718,-0.4115808545501458,-0.2624517866260684,-0.2597463917303243,0.08471194425575021,-0.4059635685152125,-0.4112375972658091,-0.22395762037301056,-0.3418896507698899,-0.6436993666048956,-0.5826615582621396,-0.49672260244183813,-0.3923697768968431,-1.1221262793465085,-0.7688608442218864,-0.35510195958896407,-0.1019104967798226,-0.5782344913140324,-0.711787888629365,-0.5463301613508761,-0.3458492104633648,-0.3208549025766247,-0.22987580228094054,-0.3420697786733321,-0.3039022719564454,-0.6156191134770819,-0.48483712071236695,-0.38604309868172954,-0.18817210809496504,0
18.8,3.2,3.7,11.65,11.5,8.55,28.825,16.875,1170.0,203.0,225.0,812.0,732.0,489.0,1794.0,1140.0,17.0,15.0,15.0,19.0,18.0,14.0,20.0,20.0,-0.35276599091129024,-0.18800213405451177,-0.2546964855894401,-0.3108648413799144,-0.29357752122840586,-0.16265970600240592,-0.0066629326110948005,-0.06257266783478213,-0.42506045977767554,-0.2785253668775406,-0.32345933812049876,-0.2007273843285491,-0.5912446938815252,-0.3275643081225931,-0.5382263403610454,-0.41644696842424433,-0.5280445834876719,-0.22543080841196617,-0.08687079105611313,-0.14680417759329162,-0.08522340420295144,-0.4300567296887704,-0.2009234602924807,-0.4114135013579131,-0.49555114387635507,-0.420964461931092,-0.46458588241822746,-0.2579811587501111,-0.7728776748526747,-0.405477441927392,-0.4990141333408618,-0.3403218886988799,0
22.4,4.15,4.325,11.35,10.925,16.075,52.95,29.475,1496.0,252.0,263.0,755.0,731.0,947.0,3402.0,1946.0,20.0,18.0,14.0,19.0,18.0,16.0,20.0,20.0,-0.40389046130646444,0.024278712770426654,0.02940818382659395,-0.14833071210596108,-0.20513472800011853,0.1547792239473917,-0.0649109750090926,-0.3005161370783597,-0.4538868772970462,-0.3015618894516097,-0.4131494902133116,-0.3904729015772989,-0.8418366405004197,-0.6234638748541297,-0.7523612190946135,-0.6003260093146989,-0.561722900269502,-0.40458098878916127,-0.309358559975843,-0.4128472917176691,-0.2725719645476465,-0.007104471588541592,-0.12340300111264024,-0.39020392092152795,-0.41690619084371067,-0.3819430080067938,-0.1536378715066096,-0.2531991533640223,-0.5794129428448678,-0.3115587958555548,-0.426489778088679,-0.33093002395278054,0
20.65,4.7,3.625,10.775,10.425,17.225,73.375,28.925,1317.0,323.0,226.0,720.0,655.0,927.0,4755.0,1727.0,17.0,14.0,16.0,22.0,15.0,11.0,19.0,19.0,-0.45723694188921493,-0.2896978298115159,-0.3324478485385299,-0.10640051193861835,-0.6345820378214414,-0.3736836727925792,-0.48171668647384497,-0.4041756169165658,-0.41860955340423944,-0.03943010248560499,-0.3648676898966421,-0.4735529103583364,-0.6728997282774801,-0.39126090695773635,-0.4498794835764556,-0.40121688520889104,-0.6123611664120866,-0.2651114837412452,-0.2371049302330372,-0.2794805879316588,-0.4501298206558539,-0.325860935656892,-0.5365664116932167,-0.3332495868126855,-0.6050670447101756,-0.28838522517803944,-0.31013581169869064,-0.2300655672703187,-0.49644619722329614,-0.429687006120027,-0.3213496499459828,-0.03109840600026252,0
17.875,4.05,2.925,9.95,14.875,16.075,60.325,29.325,997.0,252.0,167.0,673.0,1049.0,932.0,3369.0,1886.0,16.0,17.0,15.0,19.0,19.0,16.0,16.0,16.0,-0.14438290146787547,-0.06468078100636422,-0.2852175428205138,-0.13690709778454846,-0.37894226771391226,-0.2267426359588989,-0.39242670166266935,-0.24971281243306065,-0.3902809027356511,-0.3569939945724307,-0.2554038568581244,-0.4475640555920251,-0.6224682278076289,-0.4762544866901554,-0.2976909765384979,-0.30946277334804273,-0.7213744076720926,-0.3313570632046858,-0.533155343558013,-0.5427954721015558,-0.6866150029665413,-0.47088674390139557,-0.8823385459848518,-0.48622354215613667,-0.3575771636149368,-0.3686924380104289,-0.5027008886293524,-0.22938896793058824,-0.4568778208438484,-0.3673251169072278,-0.33579135299773294,-0.3873400602698075,0
17.175,3.7,2.5,8.125,14.425,18.85,70.35,31.925,1058.0,233.0,141.0,532.0,906.0,1072.0,3975.0,1927.0,15.0,15.0,11.0,18.0,16.0,16.0,18.0,18.0,-0.39915294039612376,-0.14424552169044233,-0.2614563656915333,-0.22567929238567683,-0.597931863530938,-0.4576503818321572,-0.5082095285494302,-0.45081537511069764,-0.25639901322675057,-0.13053094416919298,-0.27242940384208364,-0.25316809689263076,-0.6234174237649933,-0.5552920965489099,-0.46126253488172425,-0.3677290286723515,-0.7908080175290014,-0.5805826271299136,-0.670573527206625,-0.47718049108622673,-0.659913504869889,-0.7657453610037821,-0.6596519791389852,-0.5437463421759345,-0.3217271401994702,-0.09739969748518203,-0.10395071896955846,-0.13329567541732004,-0.34258070068008667,-0.3239896583571909,-0.06300707795063798,-0.20764552672310133,0
15.25,2.025,2.35,8.55,13.375,11.9,46.0,20.2,922.0,129.0,132.0,530.0,956.0,743.0,3051.0,1319.0,18.0,16.0,13.0,18.0,18.0,17.0,18.0,14.0,-0.39802208490004454,-0.03207282329358052,-0.21051012660868887,-0.053688024676228435,-0.4992181684972684,-0.28190295431453943,-0.24579913753564317,-0.006911951083607467,-0.3057577459803474,-0.5067296475065939,-0.2523253377949542,-0.22528777710374234,-0.47085154825824194,-0.544724036037999,-0.39154670594699614,-0.28006724454871557,-0.8367388535300495,-0.5301029966251931,-0.5737102886459114,-0.26303928849655633,-0.4881357715349294,-0.5504384320667189,-0.28521831057770763,-0.36853787125990745,-0.6401502763725292,-0.3446544508906466,-0.1772912480389626,-0.014089620258297653,-0.2711636487274061,-0.1152812792407415,0.15634570912813187,-0.30246032657501054,0
13.975,1.9,2.075,5.45,9.575,6.625,37.775,14.975,908.0,128.0,106.0,332.0,606.0,401.0,2448.0,964.0,19.0,13.0,11.0,17.0,18.0,15.0,23.0,15.0,-0.5465151149109796,-0.1669907112164898,0.33746313734081196,0.15239508718146966,-0.4826645168627996,-0.1920502234145297,-0.2633527577990548,-0.31576380298660933,-0.17162591592443655,-0.2548927943360645,-0.31504018624716545,-0.3413803511758081,-0.2923190963547251,-0.2853886693172908,-0.37398841392037796,-0.346002898001408,-0.5076811009087462,-0.44914390194580783,-0.38549608901280813,-0.21130041236597774,-0.5214812425267302,-0.3608564142501539,-0.6584660616013158,-0.4555847028834282,-0.5286602039436824,-0.5129739335954685,-0.37561412659529314,-0.3230282428920414,-0.17606255763508935,-0.22384017080654248,0.17598230461127506,-0.18279621866857415,0
14.85,2.025,2.475,8.125,11.575,9.475,35.875,16.725,936.0,118.0,158.0,576.0,749.0,552.0,2408.0,963.0,16.0,14.0,17.0,19.0,20.0,17.0,16.0,18.0,-0.4234779009928315,-0.2458099520746505,-0.1350741328768252,-0.09910937685128014,-0.5040987063982345,-0.2408395442400885,0.028579391647968536,-0.0744505998397106,-0.5708269241297766,-0.2724088487051738,-0.346147849242232,-0.4079569621527499,-0.5917471882643356,-0.30603904626920553,-0.4488256179205468,-0.40109772599057447,-0.45585025147123864,-0.09907151286445166,-0.023700912396677185,0.018795807586136422,-0.3845728962679396,-0.1470220365354926,-0.28466559388691726,-0.12841625882189017,-0.5362248646912068,-0.42001867576364466,-0.4093040363267811,-0.19167665304459083,-0.21062566159245044,-0.20771168913993335,-0.3827991202277503,-0.15707221056784207,0
24.55,2.5,2.425,6.875,9.825,11.325,38.9,15.35,1343.0,148.0,131.0,440.0,654.0,688.0,2623.0,1050.0,15.0,9.0,14.0,18.0,17.0,16.0,24.0,16.0,0.012429401926598742,-0.2953225829915597,-0.050652500443288666,-0.3281992537703168,-0.08203713129009657,-0.12343917638250551,-0.27458646808732834,0.03658302897259033,-0.06315236626765448,0.15229749850879853,-0.08858953083811395,-0.22831365854761276,-0.32163303162929263,-0.21367681823624968,-0.49968771350555347,-0.13888250897396762,-0.6012373728483555,-0.4438795075417133,-0.1854809333360248,-0.2698744325588372,-0.17625319335040163,-0.21092075794655651,-0.1078874246329436,-0.3745568144545384,-0.5747023043880989,-0.4929161209293025,-0.35413040579626287,-0.17829526559321304,-0.4627159752190822,-0.12607028525577318,-0.02564165038245452,-0.21974268488704213,0
29.75,3.45,4.05,11.075,13.175,12.75,48.65,22.325,1773.0,193.0,254.0,715.0,819.0,755.0,2965.0,1432.0,19.0,17.0,18.0,18.0,20.0,15.0,19.0,19.0,-0.25679806500322727,-0.4638115375085602,-0.13123788825520688,-0.2565676434952781,-0.14052573487155876,-0.225710281222058,-0.08591763251122676,-0.32192959762980283,-0.6377707048340593,-0.4959913498862176,-0.4700614496556607,-0.21441718825027667,-0.5503903941733722,-0.44243546339984563,-0.5034086971551481,-0.35111130574743127,-0.43701740626427743,-0.5050778226029803,-0.36111289972824945,-0.24776810485165565,-0.3111884426072506,-0.3614700574621728,-0.475394771748416,-0.36919939036841604,-0.3073658295760278,-0.6582396730273631,-0.09656860378463206,-0.48261252639797486,-0.3925619333093113,-0.34962381761483297,-0.26106631342317554,-0.5145981562513964,0
23.775,3.2,4.75,11.725,12.325,13.875,47.25,20.125,1548.0,147.0,272.0,656.0,821.0,727.0,2579.0,1202.0,20.0,11.0,11.0,11.0,16.0,12.0,14.0,17.0,-0.6342966362701529,-0.5737835533222543,-0.2735271775204444,-0.04504853200120172,-0.07998845917921284,-0.2157041598690901,-0.24491731235066788,-0.31348087134906755,-0.37322608057506684,-0.4148046950729512,-0.4376386379415545,-0.6107301313776771,-0.47590945056346123,-0.47337666784291954,-0.49771708465073233,-0.6357671184700022,-0.6122353554609684,-0.4711279593031652,-0.3294758081206721,-0.3312049031829939,-0.22050002225652945,-0.4964316395366022,-0.43831041930227554,-0.4802598338145923,-0.3618326184089533,-0.5272202697318132,-0.35447832208769736,-0.4552084605596307,-0.39569456317819374,-0.25736036015744274,-0.3325313373405812,-0.1484365270566104,0
24.7,4.175,5.025,11.725,12.75,20.4,57.375,25.575,1617.0,272.0,291.0,669.0,845.0,1170.0,3027.0,1598.0,15.0,21.0,15.0,16.0,15.0,18.0,12.0,19.0,-0.5847953277886473,-0.37983619018009274,-0.45689225414378054,-0.35148776051483743,-0.3628472004535037,-0.2215100661259083,-0.13660182555295966,-0.4356628372590943,-0.42938357655045184,-0.4397639154028699,-0.4908039112732507,-0.615296562138058,-0.3195495535112656,-0.438939272665261,-0.4198292328180794,-0.4978666578533527,-0.8216753036821753,-0.7077010053120517,-0.4584083281592437,-0.37088765663605777,-0.14275461498412342,-0.06383532618360764,-0.308769542263999,-0.34748921199741883,-0.22231178851240965,-0.36159463638731953,-0.2195535508831309,-0.22831916028068802,-0.3022853102275989,-0.14650516502657138,-0.1111707456116207,-0.44088508985311814,0
41.55,7.625,5.325,12.925,17.775,26.55,71.175,33.75,2934.0,530.0,341.0,817.0,1284.0,1684.0,3701.0,2091.0,21.0,24.0,19.0,16.0,21.0,20.0,14.0,18.0,-0.659946142400089,-0.16845244365254441,0.015226464146323266,-0.1961476754481151,-0.6288561100062828,-0.36155394409585256,-0.25831339314141816,-0.46270922965415806,-0.3661427510375451,-0.27847631283146745,-0.2851213343195349,-0.30115395061502936,-0.5647310460881685,-0.7391564987269885,-0.4161848257848547,-0.5095183843223322,-0.7745247996137432,-0.41720342850186726,-0.5856431658735359,-0.5533300127578042,-0.593948801377716,-0.3963087024168828,-0.5429343721560936,-0.5146768110222968,-0.3621627696352859,-0.3460029954419279,-0.4734432529097099,-0.2677600675515575,-0.6012276089651277,-0.5060836880455823,-0.5389679616713146,-0.3704523150811676,0
36.95,8.0,6.475,16.675,17.85,27.525,73.75,41.9,2439.0,554.0,399.0,824.0,1065.0,1782.0,4652.0,2399.0,18.0,20.0,14.0,12.0,18.0,20.0,22.0,12.0,-0.4210839770376691,-0.2726086202842128,-0.22186540721536185,-0.1155112954058459,-0.7159962745219866,-0.619766447725237,-0.4291496001443851,-0.4489428943857131,-0.4014021152871007,-0.4390780871270003,-0.4089896473641695,-0.3256538318186767,-0.18219877161740738,-0.2934726398888424,-0.31115077166716454,-0.4204153920676402,-0.29833731472504066,-0.21506917001288803,-0.2408308131956098,-0.1679030607685693,-0.5337980710909819,-0.47894040325138326,-0.40598503609503067,-0.47829103783928845,-0.6290977037537785,-0.4594483382592875,-0.27053529219989847,-0.3398422494335968,-0.2529380981201877,-0.2208441150675488,-0.20542133980948543,-0.13615139095398368,0
28.225,8.55,6.225,15.125,18.425,24.8,54.15,24.825,2023.0,537.0,371.0,916.0,1203.0,1450.0,3086.0,1572.0,20.0,16.0,14.0,18.0,22.0,14.0,14.0,16.0,-0.7337056555116219,-0.3460097155310331,-0.28598972455427013,-0.29461115659048953,-0.4412847425875492,-0.43903778005629795,-0.420003845777172,-0.2570534484749952,-0.6434632744037837,-0.5103861341776519,-0.8483269339818732,-0.3196366935804842,-0.6098391397255821,-0.6506158438170697,-0.5965317049409075,-0.5793122462004039,-0.6064985593112573,-0.33893515095150845,-0.44364436480092795,-0.40000316004827546,-0.3753154580751389,-0.31545895704049315,-0.5053142168747952,-0.47492317337963197,-0.15003915972676585,0.0632034396857079,-0.0571014124258413,-0.3257683481759762,-0.37529557829967275,0.08180505686197231,-0.0734860692349896,-0.22604843128147678,0
15.375,3.55,3.975,12.55,11.375,14.125,38.525,14.525,942.0,221.0,200.0,737.0,791.0,789.0,2237.0,824.0,17.0,12.0,13.0,17.0,20.0,17.0,17.0,13.0,-0.2956069819087059,-0.4080538376297403,-0.16196459628072596,-0.0644079878018162,-0.383244465280547,-0.4523847327318688,-0.15756266179531384,-0.23677849053459984,-0.17773304059621833,-0.44553603195990515,-0.31145261731244384,-0.4455769804548812,-0.3137897094725965,-0.5803508712619226,-0.21173273729326214,-0.5062530139805833,-1.0639855699849643,-0.8484434241019232,-0.43578835892969586,-0.09656583986560685,-0.19921716286737595,-0.2884946119775772,-0.5577298257307902,-0.25806857009783546,-0.23008604655422427,-0.1591341025621785,-0.3071543309185662,-0.2590374351369502,-0.1115851227653575,-0.05442335214786351,-0.12717415942505214,-0.24032878689963733,0
13.0,2.375,3.325,11.875,6.7,10.15,24.925,14.925,854.0,147.0,184.0,700.0,406.0,594.0,1441.0,979.0,15.0,15.0,11.0,15.0,16.0,17.0,15.0,17.0,-0.26681178194310917,-0.1622159593443405,-0.2025598879190213,-0.3827742198144531,-0.3140364746968419,0.046224557160641576,0.06369439868380876,-0.10223809245309809,-0.3448354653019198,-0.3294430166987841,-0.2953484253071121,-0.20409194910620826,-0.38341294068759496,-0.36294409381075365,-0.2989431805433216,-0.2880251684735853,-0.39395230817725196,-0.25539522509048174,-0.1615336989748565,0.027240251952191222,-0.4025353997657133,-0.6007841705642275,-0.43878046385119057,-0.44143784666747865,-0.48023815389282404,-0.5615238947363327,-0.5347362730978009,-0.5456611618490224,-0.8089009175273778,-0.6500543379606388,-0.728579972030831,-0.6596638151715501,0
11.05,3.725,3.475,10.65,5.975,10.2,28.275,12.4,661.0,236.0,199.0,703.0,351.0,505.0,1757.0,852.0,17.0,16.0,14.0,18.0,14.0,14.0,18.0,21.0,-0.10194695797793839,-0.37811237536695985,-0.2172623647288432,-0.5527479113336281,-0.41764418558330935,-0.16402552580955992,-0.1982711743033215,-0.08440389594044852,-0.3007575627625551,-0.18845300993023759,-0.06106886659693551,0.017670529438646745,-0.6874281942528866,-0.7732679923065015,-0.5926977885255604,-0.33305630823783006,-0.31232723831213455,-0.35991465091849695,-0.10011073779267607,-0.4475798770130592,-0.011188866724660712,-0.5992436996081217,-0.11081484615585716,-0.35306230467137534,-0.5476599332587134,-0.4795094309869417,-0.503078944702565,-0.2932066741856802,-0.6089992053325203,-0.377890159699331,-0.4055354993874074,0.04925723616097772,0
10.7,1.9,2.525,6.8,8.425,4.775,12.175,8.45,677.0,117.0,150.0,462.0,541.0,271.0,629.0,499.0,19.0,11.0,13.0,17.0,16.0,13.0,13.0,16.0,-0.5843817855366145,-0.5101279938670987,-0.5461799839014952,-0.5027327934981178,-0.25430368936628517,-0.2762399565371226,-0.266491382470126,-0.1098295946827891,-0.24312256818274067,-0.4262753689203856,-0.10812264679891914,-0.07639327011884615,-0.6251679129891361,-0.499044083013732,-0.5327131231097613,-0.3006391029039422,-0.15757956373489057,0.16190008885105486,-0.14336083126486882,-0.6020156060898395,-0.2521462855161723,-0.4840993752787287,-0.35841897710155857,-0.13468353331221197,-0.07597536485949676,-0.35367470142299245,-0.5548123017004106,-0.019537048202947563,-0.34184618615342743,-0.49618292107701206,-0.43433375561231635,-0.26043853722433064,0
8.35,1.875,2.65,7.175,7.25,4.275,11.775,8.0,498.0,117.0,152.0,470.0,506.0,248.0,682.0,494.0,17.0,17.0,13.0,16.0,20.0,12.0,16.0,16.0,-0.3999852932128007,-0.34193434259403604,-0.44744416207023485,-0.43559553966614806,-0.3934927919975706,-0.4408187452689964,-0.22201733444945038,-0.4030389611870446,-0.31353866181397005,-0.3063904190384833,-0.27590135685166484,-0.24451539241454567,-0.5946381026549314,-0.5512614579949354,-0.471170180089424,-0.35351239479130847,-0.8880864488592688,-0.7504388021329959,-0.6194739324406244,-0.3281756946378666,-0.2578538400031387,-0.5151397072819728,-0.4042456973507795,-0.4284044125123074,-0.2355433484820562,-0.3425060270123486,-0.2639754591230469,-0.15012034442189565,-0.48838165406979056,-0.2727329189811015,-0.18662767263521837,-0.33982780076495606,0
13.375,2.125,2.65,7.425,9.775,5.425,21.125,13.425,789.0,114.0,151.0,493.0,663.0,278.0,1104.0,747.0,15.0,9.0,9.0,16.0,19.0,10.0,13.0,15.0,-0.16691369626102392,-0.22620250162991862,-0.3186222982762956,-0.14074532371731982,-0.21723734961322763,-0.26811428645232355,-0.32310040776110815,-0.22022460223248636,-0.32100600466882667,-0.22538859437528083,-0.3063648955546104,-0.33748353331480896,-0.4952394720600393,-0.41239516826913786,-0.33431278525511954,-0.40409698533680244,-0.7455905162911185,-0.4841716947008111,-0.37600647717868774,-0.2323884607794284,0.05535546138605044,-0.25980239932670335,-0.1860169286596239,-0.24150691331147364,-0.03950041346278943,-0.45574639542502055,-0.26680516898241424,-0.25712063621403636,-0.22993869933199526,-0.3155119488378671,-0.32160812253274434,-0.3604528934331377,0
14.025,2.3,2.85,8.45,10.875,6.9,22.55,15.225,862.0,140.0,184.0,583.0,752.0,419.0,1242.0,845.0,17.0,18.0,18.0,20.0,20.0,13.0,16.0,16.0,-0.28841229133442325,-0.4491347472120184,-0.3467646741353602,-0.38400925115558543,-0.29809204754973745,-0.11351682867525924,-0.281724043912873,-0.1965978321960038,-0.6137587068113762,-0.4562832358848858,-0.6397816951621031,-0.5744026568651441,-0.5112938535303708,-0.2848030880063114,-0.2933704622599877,-0.2304130621643559,-0.6088239111596656,-0.5171712118027043,-0.07683687366177751,-0.23605792521693825,-0.27339598023072614,-0.33347690710876066,-0.23784807678916461,-0.43544211336165145,-0.2278131092644771,-0.39109295429871344,-0.3327949312731359,-0.5431130627238164,-0.24525338907310346,-0.18683109287781782,-0.44901980047528844,-0.22038778965872163,0
14.55,2.25,3.475,8.825,9.9,5.0,19.425,11.05,1039.0,115.0,225.0,614.0,662.0,324.0,1228.0,713.0,21.0,14.0,16.0,19.0,21.0,20.0,20.0,16.0,-0.6637123973931864,-0.46833545703159984,-0.46529344812026635,-0.418028970984203,-0.08640989062219363,-0.19595666666248726,-0.5199708308261404,-0.05806468897627896,-0.5286084418398408,-0.3714849059621426,-0.26626347819836493,-0.3815322746379842,-0.46097692404761426,-0.1333847575172675,-0.14489124920427507,-0.16318857712907517,-0.4799858005921243,-0.26021196839536953,-0.039086051110984614,-0.11708002444289284,-0.28762136493729457,-0.23149003348963226,-0.18731730103777378,-0.1834785337159501,-0.3152081248590793,-0.3595272116447991,-0.2708908570666585,-0.22831432421638403,-0.5696733211343538,-0.34757995803354585,-0.1975597237750988,-0.058743908024793366,0
21.15,2.55,3.25,8.125,13.125,6.475,31.15,13.325,1487.0,140.0,198.0,487.0,792.0,365.0,2022.0,899.0,20.0,12.0,15.0,16.0,17.0,15.0,18.0,20.0,-0.6703662435705087,-0.38892208198292977,-0.3868571914239651,-0.29018865687111994,-0.5042127619137089,-0.4976402045041952,-0.6469018638027743,-0.35281041133380187,-0.517851812185228,-0.2867848937904368,-0.4143013585724601,-0.5008439924408166,-0.4292393215582326,-0.30741596056552134,-0.3898687433328766,-0.41718128220461376,-0.42312261911337096,-0.365864084393073,-0.30901129942957795,-0.3665846927561399,-0.2649778510725358,-0.6668245621379651,-0.3955716770966214,-0.4277733077810672,-0.7883919103647201,-0.6964388875866298,-0.7235552929238211,-0.46340860516361715,-0.6572544514095507,-0.3461722488457633,-0.5304304887017347,-0.46713021579660297,0
14.725,2.45,3.5,8.95,10.975,4.075,19.775,9.575,993.0,165.0,194.0,568.0,794.0,237.0,1235.0,617.0,19.0,16.0,17.0,15.0,21.0,11.0,18.0,16.0,-0.8412565473032583,-0.6423957035921255,-0.5508934992427915,-0.5256204381033773,-0.642248692655742,-0.13681629736369577,0.032734368172341995,-0.03491261236114056,-0.29452327938616163,-0.13153950693565686,-0.26815640997347523,-0.4167660660961418,-0.28796890584916934,-0.12828286995863972,-0.08767101605816457,-0.38355474383482424,-0.781003392528602,-0.47231266056406424,-0.34467381669657843,-0.285382161944582,-0.2657955650222974,-0.29048319037585363,-0.42760741990112866,-0.4410920829358606,-0.5089717934858957,-0.416877840548254,-0.2710447634112118,-0.3744681767865051,-0.34431842398134177,-0.47926204332575695,-0.3395078311921737,-0.2592001982742901,0
17.775,2.0,3.05,9.925,8.0,4.025,13.225,9.525,1222.0,111.0,180.0,658.0,530.0,203.0,840.0,632.0,22.0,13.0,18.0,22.0,18.0,15.0,15.0,18.0,-0.8045405715104683,-0.6097883842286297,-0.40426184396682535,-0.35912909194635895,-0.39394346871226654,-0.10308949691704059,-0.2564232302907151,-0.12385953454347874,-0.21563122095482243,-0.04795670804327597,-0.09919767106557488,-0.2725562897812573,-0.5330454487480224,-0.3090938611003755,0.03154200320263885,-0.2093763085561883,-0.6072815571901972,-0.2655159764620384,-0.2480698801234177,-0.3422996861314851,-0.2087451334026569,-0.13895153501282625,-0.3774562144934842,-0.32018528892529047,-0.3580000803705379,-0.37752540813683466,-0.40131556475422825,-0.286161482523497,-0.5907709353103003,-0.5538543995506438,-0.24877654719189493,-0.18336217029683624,0
12.45,1.7,3.2,8.6,9.1,4.325,13.25,13.1,767.0,90.0,196.0,576.0,570.0,258.0,867.0,822.0,15.0,13.0,12.0,17.0,18.0,17.0,15.0,19.0,-0.75337212816836,-0.7325348593945955,-0.7427901159256848,-0.6196777285553954,-0.31119103674822396,-0.33150838072144984,-0.18740838938160767,-0.10524242717279168,-0.5038509873912471,-0.39170549162834206,-0.45252106246563134,-0.3771335194949557,-0.49207221648926525,-0.35982724163344165,-0.26116598620944226,-0.3823327026326785,-0.3587426413107979,-0.3372138094926389,0.08245564543498107,-0.26675894707101216,-0.31158512479700323,-0.09339291343991966,-0.24353283019708363,-0.4130340648788553,-0.4311443416076843,-0.30372056712074946,-0.257828791917756,-0.1868678102876009,-0.5982453941157994,-0.594021686962377,-0.23454230300941614,-0.12095904410059642,0
12.175,2.225,3.3,10.325,11.15,5.175,21.725,12.275,835.0,155.0,190.0,668.0,731.0,301.0,1414.0,799.0,17.0,19.0,15.0,17.0,18.0,13.0,18.0,17.0,-0.7892552966600429,-0.47752323659647966,-0.5184398092480693,-0.37461368002082696,-0.41675765400889064,-0.0035700133605415393,-0.1603195323004446,-0.19365465727332,-0.20192750213881513,-0.18082187234763744,-0.24878358508551318,-0.45434148055114143,-0.41628980394705484,-0.26552936220283124,-0.37599851637703513,-0.5786028920797891,-0.662371890970107,-0.5216825513730315,-0.5428681755888956,-0.45353376163129655,0.04578895924047106,-0.37714992181804063,-0.11390808627815001,-0.3692426022586874,-0.5208807113881315,-0.565018051815705,-0.31802661800564463,-0.40932377844653245,-0.49015789235412244,-0.3400718875720632,-0.10663830458049779,-0.30441340542535206,0
19.95,2.425,2.75,9.725,10.275,5.6,23.675,13.3,1394.0,144.0,187.0,655.0,718.0,323.0,1429.0,928.0,21.0,15.0,15.0,20.0,21.0,12.0,15.0,19.0,-0.7762066163267773,-0.5795699799509004,-0.6391817323363126,-0.5877278285348666,-0.24397181618150715,-0.22091809233749188,-0.13529094423277696,-0.07438259587840382,-0.49109786295037927,-0.12986730078687098,-0.16528760578564583,-0.2830254555537439,-0.6149068959563563,-0.32920167027293495,-0.2796941587291237,-0.2795105868040045,-0.6123407619694123,-0.46144254068094237,-0.35823603854480707,-0.12141342798418372,-0.23972025454859824,-0.2658064425126885,-0.41426587965831035,-0.27155459599093834,-0.4106813148586476,-0.251249232146282,-0.35333645280027454,-0.47402835313826924,-0.6195453909834735,-0.27903898195417964,-0.1028766537958503,-0.22101565871250123,0
16.0,2.025,2.875,8.45,8.9,5.225,17.525,9.875,1075.0,125.0,179.0,502.0,581.0,339.0,938.0,698.0,18.0,18.0,10.0,16.0,17.0,17.0,13.0,15.0,-0.6129439133125311,-0.41735930912745844,-0.4854822858334484,-0.4033839183596528,-0.1245024051322246,0.2522357885276246,-0.13785855218253137,-0.258646493912849,-0.5331103826922171,-0.23472553464283522,-0.41132136560280536,-0.367860456125856,-0.6479345706532532,-0.4654317505689741,-0.5128220177995286,-0.39573393045313543,-0.5285934218474287,-0.4690017624800583,-0.30830851777219453,-0.1763474138361776,-0.344027405743658,0.02061304097818538,-0.29626088218653823,-0.2775224884065902,-0.0810627037103435,0.029155150932776812,-0.11995867655307921,-0.33013292721133686,-0.4277837687707126,0.00634261070460775,-0.07157669636511066,-0.15367471377905734,0
19.9,1.825,2.225,6.65,8.125,5.1,14.55,8.95,1450.0,114.0,120.0,367.0,492.0,256.0,867.0,628.0,22.0,12.0,11.0,15.0,14.0,10.0,18.0,22.0,-0.8687465095697429,-0.6098615028014556,-0.5758617667062591,-0.3562448985088465,-0.29558330258013016,-0.48321743010845025,-0.011065915857087936,-0.17644734619314906,-0.01818551430529622,-0.5491802396829427,-0.06756355900598686,-0.46191682443524607,-0.09079684649543082,-0.292418221677587,-0.09601364455131838,-0.2719570440296636,-0.6249795390508182,-0.5841275032360611,-0.6481669145979527,-0.44125064439852313,0.08037996373897163,-0.0718952213916558,-0.1045200768222305,-0.2812658264858824,-0.25209750188802565,-0.2097408721268242,-0.2512211566422049,-0.3612100732526643,-0.7090183221171392,-0.44825405841698973,-0.00445214386825118,-0.09656990847208878,0
15.6,1.75,2.85,8.55,9.125,5.2,17.3,9.175,1000.0,105.0,161.0,483.0,597.0,264.0,1084.0,641.0,18.0,8.0,14.0,15.0,17.0,11.0,15.0,19.0,-0.4959904437658679,-0.38604941261565173,-0.41127247727301364,-0.3099969484040061,-0.26272035585342424,-0.2228828293313313,-0.24645815436076995,-0.24098828387959645,-0.22235006606418595,-0.42182732032664144,-0.36988223054465874,-0.2791921804110237,-0.13820704588076155,-0.31338791353439877,-0.25473910994828364,-0.22326976410775526,-0.5446922721588145,-0.3520912247830083,-0.3980082130423439,-0.2703892721040364,0.08683356425234523,-0.22502361870604556,-0.013869346924826158,-0.3669983071347657,-0.34497129054457343,-0.28931725600896496,-0.3038187041068737,-0.34415310161108353,-0.5604208718000331,-0.2998030100196723,-0.05217242568280179,-0.2018441776918274,0
11.9,1.575,2.65,9.925,8.325,4.45,13.325,7.95,740.0,86.0,177.0,665.0,556.0,223.0,696.0,536.0,15.0,9.0,16.0,21.0,18.0,15.0,11.0,19.0,-0.3380402947416747,-0.28497746693370724,-0.06010476739760948,-0.1325638362411073,-0.061351600701375124,0.030455684489060712,-0.0657096941567467,-0.48091238090464483,-0.40015629452552204,-0.0385249452513266,0.017970029213446648,-0.3842161639832715,-0.6297402767525285,-0.39859761725940934,-0.3997190373032679,-0.45508096966824296,-0.5305873444550692,-0.41054478145113305,-0.5491722476623889,-0.30825563749658125,-0.12215312859944098,-0.14773978713287542,-0.32332906098387987,-0.29461199506850316,-0.0038177575372734386,-0.32267449492218925,-0.17778262539133058,-0.33297231361692753,-0.2743791722922097,-0.4941393642015569,0.02720653414479431,-0.3735567069357251,0
15.1,2.025,2.525,7.675,9.825,3.55,13.375,8.725,1056.0,132.0,157.0,486.0,698.0,190.0,751.0,545.0,22.0,14.0,16.0,16.0,19.0,14.0,18.0,17.0,-0.6272422322535272,-0.27057732042139276,-0.2196432718965186,-0.17801286837740493,-0.4028955059807433,0.035749396868979696,-0.12568448015457195,-0.2330876707255167,-0.42455834788469526,-0.17616725463533855,-0.15687074683200053,-0.2168688719733294,-0.7013783586413052,-0.7747872952702447,-0.44781941027199446,-0.2551102560746883,-0.8591312801751594,-0.507351006761748,-0.045826228678839995,-0.010244049885627883,-0.10230207687635433,0.07903595579764436,-0.29019617747915855,-0.07500582987425378,-0.3319736388130022,-0.3122673512542593,-0.30149475258826375,-0.1770077228387581,-0.36400883631994835,-0.1813293483490919,0.1265705739749092,-0.1202743929865613,0
13.5,1.275,2.275,6.7,10.75,2.975,11.675,7.225,895.0,81.0,121.0,423.0,692.0,201.0,759.0,458.0,16.0,13.0,13.0,17.0,20.0,16.0,17.0,14.0,-0.6567140031097722,-0.5297311445769287,-0.5667803527043626,-0.4417170401916004,-0.2494615773020069,0.12536247055489344,0.11649664002289806,-0.17959754288936242,-0.10116562325720117,-0.26626917407666584,-0.06689463256895055,-0.3428388823815968,-0.516495025959571,-0.495742289864428,-0.15140493555483517,-0.19892736401126232,-0.5224816108993037,-0.4461927859917888,-0.19920099840845404,-0.404589220677145,-0.3831038525165376,0.005464037214633864,-0.11134334676026078,-0.3313619410691939,-0.5610681925159183,-0.3758580836992005,-0.4375305806933072,-0.3643434708080816,-0.4496294145780722,-0.2981981115736573,-0.018188807382892996,-0.007845510825849797,0
12.975,1.75,2.1,6.9,10.325,2.975,11.575,9.95,935.0,117.0,122.0,354.0,651.0,184.0,684.0,658.0,19.0,15.0,14.0,14.0,18.0,14.0,15.0,22.0,-0.7776981503086757,-0.5041071606969203,-0.5266337589824768,-0.31273146588982054,-0.5542305508547297,-0.3327361315808996,-0.029495426328152427,-0.1305315320785607,-0.2123568389577199,-0.18906150717455666,-0.38281136639859326,0.004423281673414127,-0.26929219780703434,-0.39964661934477086,-0.37481869474201024,-0.30970161866639756,-0.5171893990466081,-0.531689781521052,-0.43959115667022663,-0.3266941780429923,-0.22477910248486035,-0.03015478573521336,-0.19554909985215865,-0.03577999551613878,-0.4750915924515205,-0.5184726067909762,-0.3153274160282057,-0.2590642155336719,-0.6404992891031456,-0.3971329039833145,-0.367885876366896,-0.22288109936844977,0
15.925,2.0,1.725,6.7,10.675,2.7,12.775,10.525,1034.0,117.0,90.0,407.0,723.0,146.0,735.0,721.0,18.0,13.0,10.0,19.0,22.0,11.0,13.0,19.0,-0.759097637820906,-0.7580554088143628,-0.35680749395630335,-0.2988306874288144,-0.1698843276179013,-0.12175802589873401,-0.10237649045639799,-0.45731994818406413,-0.2696684423502991,-0.17731989776776658,-0.39673854849723655,-0.32338064410230777,-0.27923822593095027,-0.39821428745121157,-0.2509504112329295,-0.4979757074281458,-0.6939982217604169,-0.45560807668692815,-0.592211475037969,-0.29046640714258026,-0.028601266404668004,-0.2571406793973771,-0.2226495241161029,-0.08582522999370717,-0.24934225222733336,-0.46750918501778405,-0.26362278544151213,-0.4826670402133891,-0.5578729776501264,-0.15563498009231305,-0.4268966671791012,-0.2934949616142276,0
13.425,2.175,2.325,8.975,9.625,3.775,13.2,9.275,891.0,136.0,127.0,593.0,612.0,217.0,788.0,593.0,22.0,19.0,13.0,16.0,18.0,15.0,13.0,18.0,-0.616607217369979,-0.457301644429903,-0.18074857653241172,-0.17209101260108167,-0.3612647132610292,0.029519488468312833,-0.19550244877539955,-0.3832826474357772,-0.5060558252806698,-0.3267798734021585,-0.5486468103803759,-0.3918967981035109,-0.5548366022248249,-0.5515963202002655,-0.3946242222843475,-0.3173227524890799,-0.49767250948625097,-0.2359750518528839,-0.29604158463369257,-0.27757056371402067,-0.26019824819327725,-0.3917505000251488,-0.2700583343420593,-0.11642715657859701,-0.2401172614126732,-0.24699760210691468,-0.328744342322057,-0.23364102193284894,-0.3326845041186126,-0.05925663444502508,-0.07436618288915853,-0.23515547843712853,0
13.25,2.0,2.225,6.275,10.95,3.75,14.9,7.85,926.0,128.0,136.0,376.0,772.0,212.0,935.0,525.0,19.0,15.0,20.0,16.0,23.0,19.0,21.0,17.0,-0.7711210879127364,-0.612972596155529,-0.2026937957953695,-0.23489596507904517,-0.40981170919251714,-0.08598125285682649,-0.36818561531448213,-0.21135347788871087,-0.4992104502912265,-0.18355572880575324,-0.26961077538193257,-0.2217665554045063,-0.5385238842606836,-0.38581955236011967,-0.4565627034391882,-0.3962714064004715,-0.7432151321605597,-0.47220142759681805,-0.3160245361390039,-0.2626072214933014,-0.30013484080913255,-0.35508299394332904,-0.17241257330131582,-0.22291835930121737,-0.41942808095678913,-0.15015875477608553,-0.35829520253433284,-0.453273151662752,-0.588357556580183,-0.44179563451346193,-0.4520393644375931,-0.22456803326413582,0
14.3,2.075,2.0,5.575,9.425,4.375,18.3,10.15,887.0,130.0,119.0,320.0,634.0,253.0,1236.0,653.0,18.0,13.0,12.0,14.0,15.0,15.0,17.0,19.0,-0.5686769172373881,-0.4265307325621451,-0.5035847255447606,-0.28511582917329437,-0.3036213380396548,-0.17572083739380087,-0.25468768065737213,-0.20933420503150285,-0.4949173224217763,-0.32566023952408407,-0.15918512325405215,-0.13062782198228182,-0.3140710982835399,-0.5652876257024119,-0.2204177934702776,-0.35646647215946864,-0.6783235592689941,-0.3812177577561737,-0.23110191831147328,-0.21031031836086564,-0.28248597033931633,-0.2743858874935683,-0.48844329069430376,-0.3171586108075493,-0.6502308133576149,-0.42693570415824356,-0.610163620469916,-0.6922845483373856,-0.5276615542769386,-0.5411455400881684,-0.17520509753171398,-0.3371921721569086,0
14.175,1.8,1.975,6.925,8.375,4.65,18.45,10.025,920.0,101.0,125.0,446.0,550.0,286.0,1091.0,635.0,21.0,13.0,12.0,16.0,17.0,16.0,14.0,18.0,-0.6906054448428207,-0.5235770924018899,-0.4256977372006476,-0.19360382293957792,-0.36637409448764396,-0.17933296258247855,0.13848745455852307,0.0028454851396181135,-0.4862333519251195,-0.15002234294379577,0.14497363149168638,0.22218946620395824,-0.6153120112877613,-0.3537638434182868,-0.039226363324543406,-0.022562415433253047,-0.7437881935240506,-0.42174077937297205,-0.4147357797297327,-0.21912991500900547,-0.3717729339642999,-0.2136922531549391,-0.3328146983310782,-0.5616316233043138,-0.44258345532111715,-0.3345900020180001,-0.5239625377892229,-0.40052398039770604,-0.3888837378160104,-0.37224182056378186,-0.23137337562601976,-0.32046182741808865,0
11.875,1.975,2.375,9.2,9.675,3.3,10.675,6.625,775.0,118.0,161.0,638.0,693.0,189.0,714.0,449.0,18.0,16.0,11.0,19.0,22.0,14.0,19.0,18.0,-0.4731849579570805,-0.2849606339802191,-0.38978885230443583,-0.05072065696613551,-0.28123406040032717,-0.16170445487342266,-0.16725492053681917,-0.1329211918231942,-0.5067463284300189,-0.1782042243012342,-0.3116109774293451,-0.3280772182151142,-0.7780316757984931,-0.3910636580784237,-0.49974947081511784,-0.3824886350138373,-0.8375202207397168,-0.40010078005150745,-0.37515232049128727,-0.16835624163792234,-0.3710077812226672,-0.18776650345468998,-0.5399619128209832,-0.4369941142485024,-0.3122472907309144,-0.08278235169541011,-0.1666111626832697,-0.2871817824836951,-0.5493332617718313,-0.1726742822906245,-0.1813488326347472,-0.24964468919456528,0
13.925,1.625,2.6,9.975,9.875,4.175,13.1,10.85,930.0,95.0,166.0,660.0,634.0,275.0,792.0,704.0,21.0,15.0,17.0,17.0,17.0,19.0,18.0,21.0,-0.6339911047260418,-0.33492424903116863,-0.398268186399827,-0.3584497933950787,-0.293617708220415,-0.07362701809175501,-0.20681160920288336,-6.999741993180431e-05,-0.52761555621487,-0.20915545750852485,-0.45650226346826783,-0.31578916118964856,-0.39326757518723265,-0.2172042695133657,-0.3788658065065314,-0.23409471054960193,-0.4932673495208689,-0.47623327589858744,-0.5058221880067253,-0.33384632466365033,-0.4707622240776368,-0.45102034601399327,-0.3370391289056093,-0.3620156143195742,-0.4342407023797071,-0.40791765971579835,-0.5438544947713234,-0.18618047869372467,-0.6804448239267255,-0.6851364497987255,-0.46344677011581137,-0.24626049917266243,0
16.325,6.275,5.425,12.0,10.875,7.25,21.7,13.2,1168.0,400.0,365.0,752.0,680.0,425.0,1316.0,755.0,22.0,14.0,17.0,14.0,18.0,14.0,16.0,16.0,-0.942406910930668,-0.7263642095065943,-0.640530410871999,-0.1603909522634013,-0.14126986283576606,-0.268308344470777,-0.2686989570382861,0.01395958528040108,-0.5456501950697861,-0.5294603510590539,-0.3489124879428006,-0.07454414716238994,-0.4328566625626164,-0.4495975409783257,-0.5921863919007687,-0.04401499848917092,-0.41481831350337145,-0.3073984049461633,-0.3303086678734463,-0.22615592982027827,-0.3397381475900378,-0.10803739639409515,-0.43456928059176364,-0.2380546870063055,-0.44422670232787925,-0.36507045138526245,-0.5068733873850376,-0.3966116621504636,-0.33418137789090036,-0.504542515948311,-0.2907529511810984,-0.3830171889600984,0
12.225,6.1,4.525,8.6,11.0,6.9,16.825,10.5,790.0,361.0,296.0,573.0,791.0,449.0,1041.0,714.0,18.0,19.0,16.0,17.0,21.0,19.0,17.0,19.0,-0.4650055096089358,-0.37400297721527875,-0.025192275340656628,0.02799567179298525,0.11010271036161019,-0.1485388991763555,0.34595654031417084,-0.2035047894845269,-0.4527409050199187,-0.2902591284010715,-0.26584323558329004,-0.11126904287866951,-0.5946327159569821,-0.36398232136172753,-0.3964999174629009,0.005929325011360681,-0.8655220405103751,-0.4981342938785856,-0.5511083371590842,-0.2967791546039382,-0.4379796363198681,-0.49313638465224197,-0.016458950149499364,-0.20951148001759864,-0.40228786858165594,-0.5445130588151517,-0.25685250718143215,-0.38006223507546555,-0.3277877391105245,-0.0531914019697178,-0.160993665137906,-0.08057206311959526,0
9.85,4.0,3.25,7.3,10.2,5.975,19.55,7.575,663.0,241.0,204.0,468.0,733.0,355.0,1117.0,524.0,20.0,13.0,13.0,15.0,19.0,11.0,15.0,17.0,-0.6394067974849029,-0.46793501870442117,-0.21448778954823425,-0.2739105722367903,-0.27767701983656023,-0.17313911489878075,0.1752582583841179,-0.06996274387355503,-0.5042204379606299,-0.30089639231136883,-0.44519866313282574,-0.47086971701884006,-0.4467906121058899,-0.17299324426262985,-0.3728664979546266,-0.48282462464116044,-0.8970744743216925,-0.438500715435339,-0.2881004859546999,-0.1780949360119571,-0.009111957984696916,-0.10958939427061594,-0.04794935613895403,-0.1948399744535432,-0.23498685566078886,-0.1990629380154545,-0.15172880765261945,-0.15343662067319322,-0.46879380584487146,-0.20748686237288216,-0.04771764857433554,-0.12505942325473177,0
8.3,4.025,3.45,7.85,10.975,6.325,24.675,9.05,535.0,273.0,227.0,520.0,724.0,365.0,1415.0,639.0,19.0,17.0,17.0,17.0,16.0,14.0,18.0,14.0,-0.641714977183415,-0.5348201918013421,-0.10049523659110696,-0.00539649221596816,-0.3661480019032963,-0.1344691870344345,-0.022262260870033714,-0.20604414761347542,-0.6254886167952858,-0.08059897767509691,0.07316532715852367,-0.2161259460463923,-0.4787851811193455,-0.28441437437928846,-0.314474299556687,-0.38267023731856253,-0.6985018111065594,-0.3446549094122723,-0.028930561414698863,-0.21830756899076653,0.0024776893751680576,-0.10627398531307464,-0.18618942963230278,-0.22019873649402164,0.010622629419417304,-0.40335119166267747,-0.11809394704273134,-0.20922746410939402,-0.6645857841390924,-0.3671761401824872,-0.23145242676077268,-0.24415613807617378,0
8.225,4.5,2.775,7.675,11.375,5.725,25.05,11.225,498.0,278.0,169.0,546.0,770.0,316.0,1424.0,696.0,15.0,19.0,20.0,18.0,21.0,9.0,13.0,14.0,-0.15806168279097227,-0.42054075283192605,-0.15830127669051283,-0.011305425848941135,-0.4133529021558092,-0.27380384947775444,-0.17553371920073638,-0.17128321446361405,-0.3628448143915946,-0.27693750668862444,-0.25479736964990374,-0.2013834759474237,-0.6277781063021112,-0.4734813540239093,-0.40686022553117485,-0.43448945593846144,-0.43754628093288195,-0.21041137560431034,-0.1661223279114407,-0.08509630721789048,0.08669178407369497,-0.03995378825293674,-0.3954895286486791,-0.042381114199020554,0.1089472697589378,-0.4938598207392109,-0.14488725367470162,-0.1660494689663477,-0.34649124202082743,-0.08406030598822761,-0.23441873161787866,-0.3726948033428574,0
12.225,4.525,3.55,7.475,8.85,4.4,15.625,7.225,841.0,275.0,213.0,470.0,598.0,261.0,997.0,455.0,19.0,18.0,16.0,16.0,19.0,14.0,14.0,18.0,-0.708579811867138,-0.5432985426539302,-0.5203073363938774,-0.3836636048140751,-0.28070635723650816,-0.2591860708020263,-0.25416553429971667,-0.1712233433826839,-0.23878192654108746,-0.13131041752879372,-0.21298785553527738,-0.27929557844222813,-0.4475270070488542,-0.33575671975411286,-0.22624176248722686,-0.479595476794517,-0.43100531771012324,-0.3057858478810597,-0.08391880645104974,0.04728133318280744,-0.10100255631226002,0.13624207482834538,-0.371570507229975,-0.15828023054891072,-0.19200051096692927,-0.16408261798194537,-0.444303134839766,-0.13465672289607133,-0.406678152118825,-0.14878069289780346,-0.1864137130740021,-0.24218338287680818,0
9.975,4.8,3.625,6.0,8.8,3.15,14.7,8.2,655.0,292.0,231.0,312.0,594.0,178.0,999.0,505.0,14.0,15.0,18.0,11.0,20.0,15.0,23.0,17.0,-0.38655006026949734,-0.37943294217033485,-0.4413267128139631,-0.42316836034387734,-0.5843869716447098,-0.27735207785624183,-0.2116325527549139,-0.2424900586880788,-0.36814945707523133,0.04896115678807666,-0.2443201482623998,-0.17008347198679186,-0.29734839992888623,-0.42938354806387047,-0.44888445511089636,-0.27309304556144687,-0.7208283653335192,-0.3180308083194273,-0.6115979613637177,-0.5876240990004741,-0.10096031822591368,-0.252256088985623,-0.18605916182652762,-0.1550101752103373,-0.6230106473186888,-0.30655417616011765,-0.6234858839585804,-0.2689835952567299,-0.5660690572619204,-0.28606895899001433,-0.3400902252918982,-0.2128154043395334,0
10.375,6.425,3.65,6.875,10.975,3.55,18.25,9.475,604.0,430.0,238.0,403.0,743.0,205.0,1137.0,591.0,18.0,19.0,19.0,18.0,19.0,14.0,16.0,21.0,-0.06014468086532216,-0.27648563399711734,-0.13039890962023237,-0.45105969671611956,-0.6827107745910158,-0.18984025467011412,-0.4306849447575157,-0.33210758479358543,-0.6734594826091486,-0.3461750919574514,-0.4928809584535229,-0.24315730833698626,-0.22109084098341125,-0.21777309322127175,0.0012653107895235192,-0.3651320444990744,-0.7932010484013484,-0.45670944683849113,-0.4235681463810889,-0.29083776275201373,-0.07065328465221062,-0.188941186946974,-0.11522908466728972,-0.21073656065957228,-0.49437195469256406,-0.3368317811882972,-0.369339403108788,-0.36877886077230393,-0.4923857010441265,-0.2747651622839134,-0.06807804023058703,-0.05245009050148616,0
7.5,3.95,2.125,5.2,13.525,3.45,18.5,11.1,494.0,242.0,135.0,336.0,975.0,212.0,1181.0,734.0,19.0,19.0,17.0,15.0,20.0,15.0,13.0,20.0,-0.7843985857166126,-0.542299215760752,-0.25809547347496936,-0.21997370738769462,-0.45210291528624125,-0.12064982337671097,-0.048571526636140235,-0.11979734252311361,-0.48543939208289233,-0.21318260200225395,-0.2278957490304992,0.034757230541514604,-0.5040532796035879,-0.6216450718302963,-0.24408789485805654,-0.4870580378624254,-0.9858004857635754,-0.6652119294675211,-0.14899272200301514,-0.17733850371411652,-0.2051642961529096,-0.29459329100856363,-0.2037360197352586,-0.024286853468545835,-0.542859860802482,-0.5833873744506564,-0.3516901092764497,-0.329045288640375,-0.47699460032425506,-0.3389838877090442,0.06218214964620882,-0.1338884696238174,0
8.05,2.975,3.075,6.6,10.575,3.475,12.75,11.35,506.0,174.0,192.0,402.0,734.0,204.0,866.0,759.0,16.0,14.0,19.0,15.0,19.0,20.0,18.0,19.0,-0.8647685707654603,-0.6368584567017397,-0.5091088391596338,-0.4183183381187569,-0.30676224852219264,-0.5433279785070332,-0.18404416311386662,-0.25669297100258665,-0.3747449794790849,-0.27796980853006936,-0.2932977126211966,0.06994139138216289,-0.6149814005728127,-0.7823629442923857,-0.36235689129567505,-0.3707313546344649,-0.889788423141645,-0.578742296758578,-0.32830443278298976,-0.11097471130983667,-0.23928497113158065,-0.46804332630435475,-0.0814336297205163,-0.2943997017878304,-0.4732602865740772,-0.3379135894796281,-0.5696567535752656,-0.28304484506816247,-0.7225781707683285,-0.4758008470825572,-0.2679964646916816,-0.33726091616062753,0
7.6,3.225,3.35,6.975,11.125,4.225,16.125,7.675,469.0,206.0,195.0,469.0,789.0,235.0,1015.0,518.0,19.0,18.0,14.0,17.0,18.0,13.0,17.0,20.0,-0.3185244155585301,-0.36177028767981406,-0.1626686315550397,-0.229925802480533,-0.3196650204836101,-0.3438301449213966,-0.20887389662322223,-0.4453039354409651,-0.5103007942340504,-0.5769006376973332,-0.4848501363477756,-0.19798410272234507,-0.7166453258481216,-0.6275150286023725,-0.5067857384689051,-0.19916389345654464,-0.826741612353028,-0.5112201555586052,-0.45336717810787414,-0.20181240989709107,-0.18779184455702813,-0.2753281474994171,-0.21708723960336868,-0.19314224227367746,-0.3911909055498685,-0.17604635023177465,-0.41583313267002026,-0.43228003479033567,-0.5785149624284729,-0.22298708703121556,-0.269832949795733,-0.31023898910041786,0
5.375,2.8,2.65,5.7,10.05,4.3,16.25,7.2,328.0,166.0,137.0,343.0,708.0,255.0,1025.0,468.0,19.0,15.0,13.0,16.0,20.0,13.0,20.0,17.0,-0.44772207698080374,-0.16105262433545073,0.015204256031784276,0.14152740741705566,-0.10606846496897417,-0.04147896386356152,0.0606355007433408,-0.03953684341784278,-0.12424344036909338,-0.6983845816251031,-0.02353981867346407,-0.32436823152276534,-0.3628856521391239,-0.4408417139594542,-0.21012306217163668,0.0948036124252471,-0.780698433905036,-0.5414871543906095,-0.28665192171112525,-0.2138093714358084,-0.20046607626293642,-0.35070153549144484,-0.3602656860143513,-0.4882867429506544,-0.45019063894657013,-0.33385727436101575,-0.4811819633071713,-0.5572363647221944,-0.40418805356635823,-0.13579510395009486,-0.3587050180583102,-0.05246354040778468,0
14.125,6.125,3.45,7.75,13.2,4.525,20.825,11.05,909.0,353.0,202.0,483.0,848.0,304.0,1394.0,797.0,19.0,15.0,14.0,18.0,16.0,20.0,22.0,21.0,-0.4895644408822429,-0.4246527496934999,-0.14482854192490158,-0.3926137325282873,-0.26060015086156196,-0.2418626782603756,0.018082033510539323,-0.11465956866429307,-0.31457310676088107,-0.3118406219744158,-0.07317299270867557,-0.2129334630141155,-0.6806774633187317,-0.6657389614172776,-0.578776659703965,-0.6118901886988997,-0.6352372468213078,-0.3544652794452695,-0.1770321135529764,-0.1269617178574007,-0.5636003749283566,-0.2743908479818983,-0.4637592312990528,-0.4080532533493186,-0.5762803474100183,-0.48239868665837576,-0.5061686188731799,-0.1574666491000127,-0.7966744669716903,-0.4105891265431652,-0.06503643997114797,0.11053876460386756,0
16.3,12.725,3.8,10.975,12.375,7.7,21.1,13.6,1009.0,792.0,231.0,668.0,870.0,539.0,1283.0,847.0,18.0,15.0,18.0,19.0,19.0,18.0,17.0,18.0,-0.33391806158394116,-0.3252630165235305,-0.18853232258225244,-0.2812473086973005,-0.5569389217961043,-0.3243155864883271,-0.5083565513975378,-0.37674528723154654,-0.2838648146507364,-0.4079503029781292,-0.07833338396675307,-0.301994202397259,-0.483601870233338,-0.21084762714906444,-0.3057237263599118,-0.4712506757008709,-0.8116875389555711,-0.6103126544709808,-0.47223012583413626,-0.2961790752549497,-0.23877879696271812,0.21929475929639325,-0.04022520078657965,-0.1159784691942278,-0.4158340942962061,-0.35261737961538125,-0.2620510432782734,-0.07151968790003031,-0.5480014084331162,-0.41786905301935795,-0.4279061113674487,-0.3833413703561616,0
12.875,5.95,4.875,11.575,11.55,7.425,20.25,12.275,873.0,391.0,312.0,788.0,722.0,494.0,1477.0,839.0,18.0,14.0,17.0,21.0,18.0,18.0,20.0,24.0,-0.42932744571230813,-0.29655831653612297,-0.42262105067411104,-0.08192306820244227,-0.3870667102652524,-0.35958861174445844,0.05070704815723617,-0.15052136582410514,-0.4253566314305098,-0.3580406595473679,0.08288842383090639,-0.17796717947410126,-0.707394386477888,-0.6207478409314188,-0.2788188389336753,-0.403218805636015,-0.5108608460698519,-0.3098854253245156,-0.14998148580787837,-0.16757317055966622,-0.5085145779475327,-0.33634672327094917,-0.4611972155053336,-0.26994474015615827,-0.6211636982004282,-0.1423232878098885,-0.038501747455491425,-0.20947428546317215,-0.524004803252206,0.024237571827885326,-0.28649288700613973,-0.39313179843804397,0
21.425,17.825,6.3,16.625,17.6,10.75,33.25,15.4,1427.0,1013.0,343.0,912.0,1099.0,578.0,1915.0,950.0,17.0,16.0,13.0,14.0,19.0,14.0,12.0,14.0,-0.5854755974771079,-0.3860574199435894,-0.24805883610775833,-0.2978006865966356,-0.719479088060131,-0.6054603282128042,-0.718821033300752,-0.58831747442904,-0.06237063806804655,-0.033748421752098544,-0.27258348302043156,-0.24965037584488237,-0.4492871872647747,-0.5322550257257632,-0.4437483423362547,-0.46980440680346897,-0.3918721715914765,-0.2630736301759543,-0.28738502488791345,0.039307358466685,-0.020118964368786345,-0.2872702720537186,-0.06729283644309919,-0.16044243134215871,-0.37341023219162817,-0.45046573145413266,-0.4631273437946547,-0.3669949168157357,-0.23855666090756755,0.030123959254054308,-0.29566472141276107,-0.5147051490474572,0
19.7,15.05,7.875,13.6,16.45,15.175,39.725,22.0,1320.0,744.0,496.0,871.0,1022.0,822.0,2357.0,1448.0,21.0,16.0,21.0,17.0,19.0,13.0,15.0,19.0,-0.6539796610300708,-0.37635169885547,-0.2976364100373704,-0.3739938276880515,0.20116444093562802,-0.3081292463486405,-0.18360270259546996,-0.0438345744406104,-0.6131844345809865,-0.4879001300090554,-0.5061855663291709,-0.4308370723692993,-0.6060878310415075,-0.6305983257751495,-0.545641543333384,-0.5645281703323007,-0.3357762567637513,-0.3178157056547927,-0.324836100915795,-0.0765263102536553,-0.04551581694437418,-0.14907643799071635,-0.32050368476988467,-0.25303612666475706,-0.27614957434030735,-0.36212980188443333,-0.12191354756852057,-0.105597621426441,-0.44994462209982794,-0.1447375088199963,-0.34704605012493994,-0.11716729182035769,0
15.15,9.425,7.6,11.175,10.375,12.8,37.175,19.725,1002.0,618.0,466.0,624.0,631.0,713.0,2278.0,1249.0,16.0,17.0,15.0,15.0,17.0,15.0,16.0,18.0,-0.6114599825593374,-0.4298458256336889,-0.2998223471978876,-0.16008857941624174,-0.46194229419039534,-0.10918799852384986,0.13801007316772232,-0.04720380726159731,-0.7791354709162726,-0.7218040187367902,-0.6288440256457967,-0.31264881712837744,-0.35919699756296,-0.47780695353761854,-0.5216161776728462,-0.213165466902417,-0.16563844451163456,-0.017879515056522192,-0.15546222477574798,-0.2704844352418558,-0.22532165731488552,-0.2746409344780754,-0.2856671108515555,-0.18604722292615153,-0.8681405653670153,-0.8863876378211073,-0.7266225716386703,-0.46682347602549124,-0.6250884775679661,-0.5314321714062071,-0.3540687920712982,-0.20209921589067747,0
14.775,9.0,7.625,13.625,9.85,8.6,21.1,11.55,994.0,617.0,500.0,798.0,676.0,531.0,1331.0,763.0,22.0,22.0,19.0,15.0,21.0,19.0,16.0,14.0,-0.5919838564596358,-0.25933252303482895,-0.46356365322101384,-0.4930045810636813,-0.5723501748696086,-0.5365691298758721,-0.16476426463175495,-0.3603022490844977,-0.7625080062834244,-0.5947140997881181,-0.614073312274041,-0.23381973568174452,-0.49988524957324076,-0.41107242988322057,-0.5532582838933005,-0.4394571948355293,-0.7211332625221878,-0.4728281946586711,-0.6937633588613261,-0.42630255733309935,-0.24278740447430702,-0.1705146567790742,-0.07905397923780093,-0.06844089843390656,-0.6183839313785684,-0.6256335817735121,-0.37515230444898157,-0.44859345716223065,-0.42231912622008017,-0.4057070062326257,-0.13033068586816599,-0.41276554463988413,0
11.5,7.875,6.125,10.325,8.9,6.35,13.05,8.675,731.0,515.0,379.0,634.0,647.0,387.0,809.0,529.0,19.0,19.0,20.0,15.0,25.0,16.0,18.0,18.0,-0.4769179959928697,-0.3494107946786553,-0.24578140566039053,-0.32439101703695583,-0.4828686879479684,-0.2311247730831801,-0.21801517122009278,-0.1310101161722981,-0.5617682743789874,-0.4668630344248556,-0.29752121792977093,-0.21269835307203205,-0.5510204650237,-0.7480565418183737,-0.5508080542223874,-0.3830390203350469,-0.6809268869652817,-0.23748468240778653,-0.24515210816840916,-0.23629408151169273,-0.34557695149163,-0.44130127478474734,-0.18840442832512885,-0.10293726445616663,-0.4756197899801297,-0.4315163280067515,0.025298695692268922,-0.011595399613261958,-0.6129591480198127,-0.39583439226839884,-0.11980534599792671,0.03416287545180869,0
14.0,5.825,5.45,11.825,10.65,5.125,18.1,11.175,953.0,387.0,334.0,772.0,735.0,303.0,1229.0,775.0,23.0,19.0,15.0,18.0,17.0,12.0,19.0,17.0,-0.7615530210695861,-0.6880225894803993,-0.5746819188157475,-0.43340638041148916,-0.6435210500212596,-0.31853550747801446,-0.06560001556830947,0.0034592180081978374,-0.6794669183297518,-0.6913010191161304,-0.5541525374828765,-0.4151093681819678,-0.508227685599144,-0.39714170077302746,-0.3949266217412848,-0.38935958505717355,-0.6762482759975603,-0.46356408083936446,-0.3675267029038722,-0.4238730059740412,-0.30064045760608726,-0.3563799824733873,-0.3755624130830219,-0.4289127451326935,-0.6561999200848954,-0.4931941628362203,-0.1491785146888891,-0.21984205450903552,-0.5445547847408269,-0.36343348090065314,-0.1842860152478663,-0.1765953625059065,0
11.8,5.125,3.375,10.175,8.95,4.425,12.8,6.55,816.0,352.0,194.0,659.0,619.0,225.0,788.0,400.0,19.0,19.0,15.0,15.0,19.0,9.0,12.0,14.0,-0.7584174438867258,-0.46521861434847694,-0.5676212913419844,-0.43522711020572385,-0.5759621464337944,-0.2768365588182434,-0.15699492956744346,-0.10515282217561497,-0.6801446731533204,-0.6282962002507839,-0.4905888850349213,-0.4055906251090443,-0.611782847472427,-0.39814622516254167,-0.4375847695075657,-0.5500020644850616,-0.6265699311117924,-0.42901287214259487,-0.11702199725520056,-0.24031016700404226,-0.12076801849219028,-0.2896188541870637,-0.275078406248679,-0.4719049410305978,-0.5927323312909758,-0.40884456758010623,-0.4588699286493254,-0.4979532366339272,-0.3546607263541139,-0.25918043483504655,-0.26027418910862843,-0.0034275388839381986,0
2.325,3.3,3.25,7.875,8.55,2.55,7.775,8.125,134.0,216.0,214.0,527.0,588.0,136.0,381.0,564.0,13.0,13.0,17.0,19.0,18.0,15.0,10.0,20.0,-0.3267856016105933,-0.7876043340032534,-0.22009466383077586,-0.22786085289470748,-0.7738095666354325,-0.6641624695838956,-0.3707191757791708,-0.23895429166864227,-0.5339725692070068,-0.15044602976251822,-0.08547750573304998,-0.17225426508283892,-0.6367460947562996,-0.329771613822271,-0.5157748293105213,-0.43739613852228365,-0.6774270475301208,-0.3317734793831102,-0.24967738989572008,-0.3129493912268376,-0.218266123746331,-0.6292266700596887,-0.3334300656740534,-0.3875944090162342,-0.06552478403857569,-0.2932734853576861,-0.2769649491399087,-0.48880954318181924,-0.6662103836145264,-0.42388593804147484,-0.313210524618571,-0.2862070669443109,0
1.925,2.9,3.925,10.1,10.375,2.925,9.95,7.525,115.0,171.0,247.0,598.0,685.0,153.0,542.0,459.0,12.0,15.0,19.0,15.0,17.0,12.0,12.0,12.0,-0.6065631621081422,-0.3562013586601235,-0.37571652328653077,-0.2861191895441289,-0.4719239831966187,-0.19163356147812344,-0.08412974243172172,-0.23676474582083246,-0.5877666231925853,-0.475832466041458,-0.20522879387934093,-0.014427310781842345,-0.3622051317058386,-0.45976519177164826,-0.28915519803236467,-0.2828674415447062,-0.5530135342736623,-0.4934310582303806,-0.3789294149262721,-0.44191570253563606,-0.033948829243552504,-0.10106379118442561,-0.31786244056821045,-0.12345503593748099,-0.339031380262184,-0.3175648372701356,-0.4548580340997165,-0.2588631573160351,-0.5008940488905639,-0.24967780601915657,-0.3144588063187148,-0.38692507660601827,0
1.95,2.675,3.075,7.925,7.175,2.55,9.45,6.25,127.0,162.0,191.0,526.0,469.0,132.0,615.0,429.0,15.0,13.0,13.0,15.0,18.0,12.0,18.0,20.0,-0.6177587458793109,-0.29099320983708327,-0.31173425158153445,-0.17591078547498626,-0.3319212844084453,-0.31108358950653475,-0.3379461602461788,-0.37967235921989384,-0.3913355848710835,-0.16772654012042273,-0.09562749124804737,-0.11899257807275587,-0.6781141730113852,-0.5911864703731804,-0.497201886196308,-0.47912507689640027,-0.755014688176087,-0.6362741293472283,-0.3128857094913321,-0.29631123353214134,0.02612441248298491,-0.3211922458430815,-0.23264378275407344,-0.2482781434970708,-0.5373275724539964,-0.54506802037073,-0.27759451872011626,-0.2919784297882591,-0.6827083235923473,-0.27301167627445866,-0.2456274814642246,-0.18923750972774567,0
3.95,4.15,3.7,7.425,6.65,3.35,10.25,8.675,226.0,257.0,261.0,515.0,461.0,180.0,607.0,568.0,19.0,17.0,19.0,21.0,22.0,13.0,16.0,21.0,-0.1539896346019109,0.0423051595044772,-0.08721062665790774,-0.29282111721845894,-0.48798131702416897,-0.3254014770692721,-0.01277789156068479,-0.0020687212440637804,-0.7776500813859252,-0.4116214654754426,0.03805902798952935,-0.009220918060254544,-0.5518003293462236,-0.3470675278666633,-0.1646064420927832,-0.17627067528620288,-0.39926974342291865,-0.20532582750583367,-0.1830419801067607,-0.3761336835035478,-0.11546546733635721,-0.47544334680416617,-0.21465421966995638,-0.4602145212081229,-0.21483483324396466,-0.19914454444566987,-0.09123271919209437,-0.04682531660887188,-0.7637116838100612,-0.49712046905503615,-0.15424924097184214,-0.04330754694361177,0
7.675,3.325,3.275,7.35,8.65,3.4,14.35,10.675,507.0,219.0,219.0,498.0,606.0,204.0,828.0,756.0,16.0,14.0,18.0,22.0,21.0,14.0,14.0,19.0,-0.6809660746797191,-0.6653331153329531,-0.6193194788510659,-0.5999513285328893,-0.5867981534376477,-0.25595705031989424,-0.17715857206785493,-0.08744766861794341,-0.6832812042503161,-0.694117639120772,-0.49603768289987044,-0.6285647332396079,-0.6787853415490035,-0.6692236469202547,-0.5808477608716553,-0.49301758899491216,-0.7415755594347958,-0.5182123353071159,-0.398420955921202,-0.2408805592092317,0.1070769667912114,-0.6538998463393919,0.03145290206020528,-0.3907654166776513,-0.09664695901850598,-0.4327977882505121,-0.21857009646211975,-0.3902105941686764,-0.6750134387248122,-0.26554902301073235,-0.057552993134297556,-0.19014545225314267,0
2.4,2.725,2.6,5.625,8.45,2.675,11.5,6.2,148.0,182.0,169.0,344.0,566.0,167.0,761.0,408.0,15.0,16.0,16.0,14.0,17.0,13.0,21.0,17.0,-0.6356210778056441,-0.49757511727698484,-0.343066709931231,-0.3415596997711238,-0.3312950130960513,-0.269237175088893,0.004639139504371524,-0.2530294416960539,-0.38501908314330785,-0.20375416815476405,-0.18529202582943385,-0.34500179446221213,-0.5180915808137863,-0.41617720655555096,-0.16931508837415343,-0.28063730341906856,-0.7586170802390861,-0.5655948761704512,-0.12205296964743753,0.30045162495211863,-0.2244535727312427,-0.2927379539863471,-0.10473755299904357,-0.32148703704164344,-0.4708552315257507,-0.4456708822365361,-0.30935566006010995,-0.37497182983918464,-0.4795890580861802,-0.18824171603938972,-0.0340653571323016,0.14016459592421532,0
1.625,3.0,3.025,5.525,6.5,2.175,10.825,4.625,100.0,203.0,165.0,315.0,429.0,125.0,722.0,286.0,10.0,17.0,11.0,15.0,16.0,9.0,17.0,17.0,-0.2225647711702022,-0.09067713150880176,-0.14857574985170013,-0.3035659681839938,-0.7305825713016026,-0.5672408289409322,-0.11294780739956284,-0.05646515346176485,-0.3009737258196403,-0.1451637917931641,-0.2229186327432141,-0.24620204987717645,-0.21162793742026187,-0.1277109430125434,-0.2573922262305448,-0.21804873789337292,-0.6547939587440068,-0.15886877052301254,-0.03920227770222836,0.04802863370234417,-0.13051048462001497,0.02379942631432486,-0.09133923569289508,-0.10994081572103928,-0.398651451984588,-0.14996396533931936,-0.26262890451902116,-0.4924354002970942,-0.33522509725185856,-0.18251518187805768,-0.2841809280422123,-0.32332083266591377,0
1.625,2.9,2.525,7.225,7.55,2.8,8.2,5.35,98.0,182.0,139.0,424.0,497.0,163.0,487.0,332.0,13.0,16.0,12.0,16.0,17.0,16.0,15.0,18.0,-0.24363483029895464,-0.40615464002866647,-0.05481545769171506,-0.30540022079352486,-0.1661461229563647,-0.23980780123002413,-0.12816665257808157,-0.29010470910493946,-0.2771734891436507,-0.1346008429181517,-0.2605028702037067,-0.5139044097011248,-0.3125119739762941,-0.16136139416798245,-0.3359664867129988,-0.3144612624215363,-0.5346826548687451,-0.32407883692767625,-0.08856597265054791,0.03768721816195697,-0.16124574500955846,-0.05367846312250051,-0.18985121274718908,-0.2015127260989645,-0.14386342907389388,-0.35318931239898993,-0.32480957511197706,-0.2699579843724432,-0.3626797781937768,-0.2977255746043141,-0.1551333442009896,-0.2202995108621362,0
1.375,2.825,2.875,5.95,8.025,2.9,10.775,6.925,64.0,157.0,145.0,342.0,588.0,177.0,667.0,451.0,6.0,14.0,15.0,18.0,23.0,20.0,16.0,19.0,0.14686544120865058,-0.04831612170806745,-0.3987155526654234,0.14304174263449435,-0.2356532722909679,-0.2928916029049003,-0.34412405734045093,-0.03797051001107325,-0.16029257379663261,-0.39932207290120253,-0.25070269405469825,-0.19651352775308872,-0.10522186105371635,-0.22163847846145127,-0.19518035458468047,-0.1916409393404216,-0.9922766002758062,-0.6312219898643313,-0.2113061476137147,-0.03945385769677039,-0.18923788887877885,-0.028897946216980712,-0.16774215930813854,-0.4031914110386001,-0.30959146224623557,-0.2035776600578481,-0.02117221973475819,-0.3260848262772152,-0.4793644376967166,-0.25592511696391224,-0.1437732934879591,-0.1967496064195087,0
1.95,3.225,2.175,5.075,6.475,2.8,12.325,6.075,103.0,191.0,125.0,270.0,385.0,159.0,693.0,386.0,13.0,17.0,16.0,13.0,17.0,11.0,11.0,17.0,-0.16232974380198825,-0.021456434976754202,-0.1924053949197538,-0.22950127553748537,-0.3732608653455207,-0.6315751426237066,-0.3092228323219831,-0.4074335828148001,-0.209519067988299,-0.4405634336643662,-0.11405057715398544,-0.5006809125097764,-0.08363647626969731,-0.2457442104691466,-0.2610305879794471,-0.4932408645019775,-0.3037600458700138,-0.3050312606248643,-0.11362728278149173,-0.26528189860566553,-0.21779247376315214,-0.6539084571014381,-0.2929712500581397,-0.5595057079147856,-0.3507145791604198,-0.46572209747148535,-0.3876885805520347,-0.39078772128785066,-0.4964293722325264,-0.21767133119336465,-0.04969351100845616,-0.2280524964959385,0
2.85,3.475,2.35,5.375,8.65,2.55,14.575,7.475,191.0,253.0,154.0,314.0,584.0,132.0,810.0,475.0,15.0,15.0,12.0,16.0,21.0,13.0,10.0,18.0,-0.9504775910902818,-0.6551433153423042,-0.37518208330382585,-0.17833687999791478,-0.3895874206168409,-0.5139470433591553,-0.11510470860685727,-0.47244306416727383,-0.4415405744031182,-0.38564958622581025,-0.2573592921181711,-0.2615876512017155,-0.24866079414660913,-0.22298038882030266,-0.31794082868515955,-0.19881977667627737,-0.5470375221843209,-0.42501550522497106,-0.20382362601055276,-0.39229122782975173,-0.03164680011032623,-0.19140618016117286,-0.09537811713834064,-0.10663558308965787,-0.258012532919795,-0.3815796567215689,-0.31748254925344704,-0.4668226933394986,-0.42040008585488103,-0.28932973255519157,-0.2699624887840475,-0.31272954770120576,0
3.575,4.45,2.1,6.55,9.675,4.075,18.85,9.75,253.0,315.0,129.0,387.0,569.0,228.0,1118.0,654.0,20.0,19.0,15.0,17.0,19.0,17.0,15.0,21.0,-0.8628548881136818,-0.565330908512749,-0.2584995113797611,-0.2111671455860684,-0.875769373480431,-0.7657265247273073,-0.42276629484960276,-0.33840679216706404,-0.3187317387100255,-0.5482282373487638,-0.05243455815519077,-0.2746089309967155,-0.3057225791490992,-0.1753696439966626,-0.2946365708607625,-0.2374300720090294,-0.37857421782509015,-0.40625076252056014,-0.16470107126426675,-0.45436158407835725,-0.1715436292271663,-0.03176578235486816,-0.4952993604722229,-0.26372610573857613,-0.22171010358184248,-0.02658587236022564,-0.40254958404706487,-0.42694430318927135,-0.49397371278588814,-0.2639289503179665,-0.4493666779552432,-0.348957251020104,0
2.3,3.275,2.375,7.25,7.875,3.225,13.85,7.175,140.0,197.0,133.0,450.0,564.0,159.0,738.0,495.0,15.0,16.0,13.0,15.0,20.0,13.0,13.0,21.0,-0.49998517760058964,-0.4904626074464681,-0.1785785379081479,-0.16811001232383424,-0.20339898956272934,-0.06360276358433309,-0.3834606901460385,-0.08645597300898873,-0.22291268995353694,-0.07444714023765023,-0.47099904982696966,-0.2750448745204553,-0.5096152863976259,-0.28178364038073794,-0.41339406783868454,-0.43438347277665884,-0.6951377280509121,-0.08967923809475382,-0.1561146625484695,-0.26961176001407067,-0.03399655765132923,-0.2819309937009825,-0.31482163780275174,-0.35795475486785755,-0.17071554695280206,-0.34181803331907923,-0.2677048382638323,-0.24606374109620807,-0.6448968953881308,-0.377202107662943,-0.2987311088276521,-0.3594998690650132,0
1.5,3.525,3.175,6.35,9.925,3.2,15.0,5.95,89.0,254.0,207.0,413.0,664.0,169.0,930.0,399.0,9.0,25.0,17.0,17.0,19.0,13.0,19.0,21.0,-0.26993163310872026,-0.35776459459884075,-0.15318003867623123,-0.3447871293406749,-0.6240161578389788,-0.1263079863953408,-0.5140517216850492,-0.31871720750670945,-0.5927961940485287,-0.2033447385217248,-0.47830490746317234,-0.3776284858367797,-0.49594336034020364,-0.21827909235106296,-0.4617895564948772,-0.36648240218378825,-0.59564662082494,-0.29137101237911783,-0.021647718288844667,-0.004840956016612404,-0.15723076055730034,-0.20281460797134795,-0.2590460211319615,-0.3839327858612218,-0.4465386551467995,-0.45680471355456786,-0.28773375124599576,-0.5340304657286201,-0.47964709674299477,-0.21030876519530217,-0.30997877155228765,-0.5470802203919776,0
1.4,4.075,2.525,6.7,9.925,2.45,12.6,5.85,83.0,257.0,140.0,397.0,699.0,141.0,771.0,391.0,12.0,18.0,14.0,17.0,21.0,14.0,19.0,16.0,-0.4773111779073473,-0.18800505227702546,-0.11006183432162639,-0.13103678193084742,-0.6606944076616863,-0.4112240527300287,-0.16149249100042207,-0.2142387722657888,-0.2043346645521311,-0.22467106939139556,-0.1261440726073456,-0.5913945933577038,-0.27936683575562177,-0.2777489667853678,-0.18748319713913925,-0.4658877015388463,-0.8774048226674366,-0.3347187784935915,-0.22734476445691187,-0.21685520093878602,-0.2058279500950051,-0.3968476632170885,-0.2718938888158433,-0.157928759541997,-0.5051250441379721,-0.4189829166063054,-0.36532859916524657,-0.481216413260593,-0.5024387304434034,-0.35321580169422784,-0.29163539048244147,-0.16192207516353646,0
1.525,4.225,3.05,7.675,9.825,1.825,13.15,7.525,98.0,283.0,218.0,513.0,671.0,98.0,893.0,510.0,12.0,17.0,18.0,18.0,18.0,12.0,18.0,21.0,-0.5855570525115898,-0.29066033518464274,-0.23485451749733707,-0.19256566787576146,-0.5282452356801361,-0.052355563513623866,-0.5032019215974188,-0.47179493347175633,-0.48021608926483245,0.2003701215311084,-0.18030079407244495,-0.4303471752835145,-0.675850415646808,-0.3120256239975306,-0.42008829167942646,-0.5163608300866914,-0.940632191667053,-0.7206407494712785,-0.4476095284751697,-0.31831513961662966,-0.008852551587251345,-0.1947310945881686,-0.36995172317317637,0.07695008360149456,-0.6153841190493625,-0.39226757826128367,-0.38977393135073324,-0.43333400244742454,-0.4695489329792498,-0.20580058224566414,-0.2175597533279084,-0.3636863114389001,0
1.875,3.075,3.1,8.6,11.725,2.45,11.9,8.425,123.0,213.0,218.0,608.0,709.0,138.0,786.0,578.0,17.0,14.0,16.0,19.0,14.0,15.0,15.0,19.0,-0.4162591709437645,-0.3083442177577867,-0.0838172840805612,-0.4479852329286949,-0.5241860875384149,-0.012781883398586543,-0.11333077613236633,-0.07128867049114475,-0.6008576647730804,-0.09216602941827237,-0.27679962191221685,-0.3473348706659513,-0.8116884145681299,-0.40066508941674,-0.4406469878570246,-0.35883286831819783,-0.8031303239050256,-0.5584021880096319,-0.34150416078019447,-0.21865839910176463,-0.549585504196648,-0.3795876304788525,-0.5980140399639096,-0.3409963002025229,-0.5100488750302001,-0.22126781473200424,-0.019075233127510728,0.030569233050910787,-0.5600791475257247,-0.370958641854727,-0.3888311821169599,-0.4123772971682549,0
2.175,3.1,2.3,5.725,8.125,2.5,11.125,6.45,136.0,198.0,167.0,383.0,537.0,149.0,688.0,429.0,15.0,18.0,17.0,14.0,19.0,17.0,19.0,17.0,-0.3854223362638028,-0.35906834981348096,-0.14891196129469023,-0.5109586649347996,-0.22027484015709534,0.10322915469406324,0.001999461087409396,-0.5289563328907384,-0.7500114397116772,-0.3394864575971107,-0.3270530010572123,-0.456883840039409,-0.46603464316168347,-0.18944441533980622,-0.19492785416644667,-0.21453369397934866,-0.7185304275625513,-0.5558020825182447,-0.5588454015364637,-0.46277799556352633,-0.43017298345127675,-0.4332779891544585,-0.40778225457639167,-0.2694977828296067,-0.6780554019368501,-0.5144403680347359,-0.4793013636701094,-0.15335380793402972,-0.6217993780703228,-0.682432785370212,-0.39598528427330887,-0.5728377548108857,0
1.775,3.225,2.925,7.025,7.625,2.425,10.9,5.05,94.0,217.0,191.0,430.0,510.0,146.0,643.0,325.0,11.0,15.0,18.0,18.0,18.0,18.0,20.0,13.0,-0.17509524982219318,-0.24703163436612796,-0.14201626215797208,0.062313990416111915,-0.4905633102241675,-0.16322092327299623,-0.26560473203910945,-0.2814486131162068,-0.5308634720061266,-0.5049295049000762,-0.29440836904040313,-0.43229765181323515,-0.48138178883277105,-0.45086582076484455,-0.3471711761896333,-0.38994963578214914,-0.4825689102553075,-0.2765901687521911,-0.021649119148269187,-0.19365755072455001,-0.3641359534916403,-0.27305008422406574,-0.2863769806699907,0.06301918287546039,-0.60703033255423,-0.6128982383203255,-0.5106895661432478,-0.35202752679297855,-0.5471249030660866,-0.34709850282330124,-0.2886151179923744,-0.03308673305512253,0
1.275,3.225,2.9,7.575,9.175,2.425,11.325,5.05,61.0,215.0,165.0,528.0,636.0,151.0,692.0,324.0,9.0,17.0,15.0,18.0,21.0,14.0,16.0,15.0,-0.13243449232090443,-0.44859397293251463,-0.08351785384591956,-0.15582481990723718,-0.6400810545797185,-0.3270668308616984,-0.43768036195616383,-0.40888320530226285,-0.04024170406733574,-0.3946353461491334,0.014071929769791882,-0.4216624164866447,-0.5409232850571258,-0.2506311198362527,-0.31634567157568294,-0.4832724442952851,-0.9288699951738395,-0.8796366976210016,-0.46851753390060097,-0.3412500777030026,-0.2583317572182354,-0.15728450920618442,-0.3894588944469721,-0.4227047216420263,-0.5753108288811116,-0.5963686007637974,-0.6761505771373362,-0.43610356854011845,-0.4158800650567405,-0.39532860158234295,-0.179785587981433,-0.24970999791506499,0
1.35,3.475,2.35,5.9,8.35,2.475,11.275,5.725,63.0,223.0,152.0,394.0,566.0,141.0,713.0,356.0,8.0,19.0,21.0,21.0,21.0,17.0,12.0,17.0,0.07873997347859903,-0.6595811969552184,-0.09806701843425542,-0.43585282369658646,-0.4634997793749071,-0.1878624035585863,-0.47877894548158173,-0.43627737607629963,-0.42433525577081577,-0.06429734620596479,-0.30265328342004794,-0.18503884087606087,-0.2452012713663767,-0.014096181330715244,-0.1475694368559559,-0.08652758027537548,-0.6925510803564116,-0.33434274618996773,-0.14325841566261854,-0.13522624081041126,0.03867812585772877,-0.36569086638615395,0.05394391928452218,-0.258894844797486,-0.4257962531797055,-0.39698453327890604,-0.4506202685897765,-0.40815807371048424,-0.33821736596797203,-0.07751364326326411,-0.0034694735668375134,-0.18310984798814908,0
2.175,4.3,3.025,6.2,7.575,3.275,16.575,7.475,100.0,252.0,186.0,384.0,482.0,210.0,1055.0,500.0,12.0,14.0,15.0,13.0,17.0,16.0,19.0,20.0,-0.19620146774137553,-0.4232032605516109,-0.35037317877160634,-0.3463199882153069,-0.2410082178853514,-0.026502501379074096,-0.18410035467309355,-0.22299585761239152,-0.45505852672779923,-0.34256063273773457,-0.16978004523543594,-0.24742849537429387,-0.4063335648822314,-0.5310958747591462,-0.32210163210322384,-0.2853240038679915,-0.5614345541193189,-0.32270557779537246,-0.1073112538218579,-0.05360480531301596,-0.3561305591811294,-0.26152145931159027,-0.28641196992488344,-0.1696151856021411,-0.27491950267401616,-0.4868678659193072,-0.2444677547204777,-0.5373234403615033,-0.5164318507955066,-0.32435165704821073,0.10290295481948972,-0.18507212958085478,0
19.55,13.2,6.1,12.025,12.85,6.05,28.075,13.025,1337.0,969.0,412.0,868.0,803.0,307.0,1365.0,757.0,20.0,20.0,16.0,23.0,19.0,10.0,15.0,15.0,-0.5897566253605862,-0.3371795734327849,-0.2155349835956187,-0.3698806210390236,-0.6797648307439912,-0.33231548466103783,-0.1255604456473918,-0.18780498032515247,-0.6724657386461463,-0.5915403711544612,-0.5498064474777618,-0.3377043728956719,-0.6751978046378322,-0.32795532916362036,-0.46566727442594574,-0.1770072690834236,-0.5963228805839113,-0.5644019174825896,-0.22618607888440992,-0.36741451110198176,0.10734106117797736,0.18465103349193907,-0.26976463072416756,-0.14739830934796086,0.014223402400250678,-0.12421655611109751,-0.25343895801169375,-0.3284659108625084,-0.2944639829858042,-0.1567416649287867,-0.20826316632005412,-0.4383633221623508,0
17.95,19.825,8.425,16.125,14.3,11.45,34.925,17.0,1233.0,1327.0,554.0,1138.0,893.0,644.0,2052.0,1072.0,20.0,16.0,19.0,21.0,15.0,15.0,17.0,13.0,-0.6794595912825373,-0.3249238795948186,-0.19960041078930835,-0.22428315676884772,-0.8545662411477596,-0.6673794461846649,-0.46684598949410605,-0.3213055605099715,-0.5512155636017625,-0.31615185797198586,-0.2903257357097299,-0.1451779304527286,-0.8059448456620893,-0.6515618701850306,-0.587114911400675,-0.2964044703477283,-0.6079177753118191,-0.4271451623885137,-0.3754618307035,-0.545390333000719,-0.02589983751103233,-0.1662496737263605,-0.09200952924001558,-0.12173398608068682,-0.21513411348002884,-0.4200462927059046,-0.2035264294216306,-0.36406908277113764,-0.6788429613260903,-0.6330228843033241,-0.4673567969877462,-0.48547725053584784,0
13.35,12.75,6.875,10.625,11.9,10.9,25.65,19.675,904.0,741.0,465.0,675.0,795.0,568.0,1529.0,1329.0,18.0,16.0,21.0,14.0,17.0,14.0,18.0,21.0,-0.603987206760611,-0.449615487081081,-0.5456243376629927,-0.40168299436553945,-0.46626299748435557,-0.5046369950927311,-0.47124042445342146,-0.30280551627763874,-0.5574506816046421,-0.20068653513050635,-0.2942371517939428,-0.17735338223539213,-0.42634620591706346,-0.2655133668253535,-0.3202068347319651,-0.030280746170096236,-0.5384063591308877,-0.36598726492796313,-0.1038224945358916,-0.2834297773459628,-0.004792190335447638,-0.06530867198130269,-0.20398292362844303,-0.2375237879467532,-0.1300475508242418,-0.26638336588461026,-0.21186513556389244,-0.1918878498194273,-0.783395688332327,-0.629680609959426,-0.3303047479493636,-0.2054642269429694,0
13.05,9.3,6.15,6.325,11.5,6.425,19.875,11.6,793.0,560.0,400.0,384.0,789.0,381.0,1234.0,749.0,14.0,18.0,18.0,19.0,19.0,17.0,19.0,16.0,-0.42906660722748385,-0.3935461274922608,-0.254314555090795,-0.38414015625678877,-0.1463713750360453,-0.6286701112924438,-0.17479505945172505,-0.5033863822462274,-0.5296896563058155,-0.4275373047540754,-0.2745068835090342,-0.39948147520659694,-0.2413791661225622,-0.17584230455134625,-0.2645078861033614,-0.31028815252119535,-0.7665151976269686,-0.5412764592992114,-0.33967684053872005,-0.3392704163521701,-0.18323165862417207,0.06671766549255494,-0.3443060398096785,-0.36222932396210106,-0.36528202703746193,-0.1506626760831748,-0.3434178826200639,-0.41684623222149825,-0.590220662568649,-0.28348500561554735,-0.13305560913196615,-0.2922536263552705,0
16.025,10.225,5.3,8.05,9.975,5.7,17.675,12.525,1140.0,694.0,366.0,504.0,717.0,348.0,1122.0,870.0,21.0,14.0,18.0,16.0,19.0,15.0,13.0,23.0,-0.5633023626231449,-0.37632534271249024,0.08552501829190912,-0.1686474901195639,-0.40626858272593597,0.016495538125492232,-0.22654869306923384,-0.19718403367282425,-0.5650742182914744,-0.41394832700331247,-0.4895341145149833,-0.2426110237628013,-0.5179538409103039,-0.46386043995805915,-0.33708862522568384,-0.43853530416921194,-0.6748996789310988,-0.2544881503050362,-0.5721420856290029,-0.49183744570550103,-0.15322581179756858,-0.16996113929998422,0.045801366587581174,-0.33732401337653106,-0.4258597629152655,-0.3246126682769328,-0.016005489272924722,-0.2106844579705658,-0.784051300486777,-0.36472396989719524,-0.2037955975580205,-0.22694164973761202,0
6.9,7.5,5.1,8.425,10.325,5.575,16.125,10.4,422.0,508.0,350.0,533.0,745.0,332.0,915.0,708.0,19.0,19.0,19.0,20.0,19.0,19.0,15.0,19.0,-0.4230749714274989,-0.2371189265653036,-0.09182474591601014,-0.16220304092190266,-0.5376332490514744,-0.4281165144066458,-0.14253810230561387,-0.05866690133682961,-0.8049923399134705,-0.586983006927601,-0.37209713512598747,-0.21439355328683565,-0.49044767976420106,-0.38469706392052333,-0.4125545456721175,-0.38940282270027343,-0.7093122692088918,-0.5445242441338748,-0.27851228070729045,-0.14817077237264153,-0.323560423924167,-0.24079877826012358,-0.2807912055909662,-0.18747771512813832,-0.09482366250251116,-0.5225595650846722,-0.027597351659723032,-0.4348892635351059,-0.5045809385853073,-0.2941555437643493,-0.23364530615745738,-0.4507007953607158,0
9.35,7.05,4.025,5.85,10.425,4.125,12.375,8.175,609.0,466.0,272.0,352.0,730.0,234.0,676.0,504.0,20.0,15.0,20.0,17.0,20.0,14.0,14.0,18.0,-0.4953332079061142,-0.42076792604142965,-0.05611225286863508,-0.170488694867869,-0.49781405490499864,-0.33649276044594467,-0.21033959633103652,-0.17981306502330394,-0.5239923351185761,-0.410988640036986,-0.1758208733472985,-0.13415894411467003,-0.3626285630146173,-0.23152760428379254,-0.29590927764244707,-0.40181259286006826,-0.6532187300221667,-0.40363369591797166,-0.15422728828986884,-0.13933992983988783,-0.24964046419083807,-0.48202421857796823,-0.20459959834723782,-0.3891581588751627,-0.10254169850786529,-0.007274982591691872,-0.29005086351179793,-0.4403545915073569,-0.25037132368111736,-0.07536399935536778,-0.3698714345888754,-0.22399482461238482,0
6.425,7.375,5.0,6.35,10.9,3.725,16.025,8.65,452.0,474.0,322.0,365.0,720.0,193.0,896.0,510.0,23.0,23.0,18.0,20.0,15.0,15.0,19.0,15.0,-0.53145272103791,-0.1894367483704203,-0.15149363744946154,0.0036914044142040713,-0.3814544919566185,-0.2478611959649968,0.08771032507078665,-0.04276977358977631,-0.43305693270308365,-0.13073422015388791,-0.09485372768741872,-0.20955376131445672,-0.3380081153667435,-0.19866331096892875,-0.38850898751158786,-0.1924843717545509,-0.8882054349939908,-0.7013614687598599,-0.43043642334855425,-0.18694584460207064,-0.09059561480674767,-0.24094100176210934,-0.39765622707691695,-0.325928198114849,-0.2765064159435606,-0.4966611445236814,-0.29835211185333105,-0.3859923507359559,-0.2748588795483617,-0.3814286738017363,-0.2134772881786014,-0.2060645208086496,0
9.575,8.925,4.975,7.025,10.825,4.025,15.3,8.875,671.0,644.0,313.0,472.0,685.0,248.0,920.0,565.0,17.0,18.0,16.0,19.0,18.0,18.0,19.0,21.0,-0.6298465461922265,-0.2928277400273816,0.16653782679576384,-0.0345419311567434,-0.7252546195130609,-0.424681046934771,-0.07353617482032333,-0.19837668654543705,-0.47290762191973906,-0.4228908693903144,-0.2957220841529453,-0.20299607349897403,-0.5383197371992117,-0.0790793286790703,-0.16117029507565184,-0.03712517505877671,-0.3734103150550994,-0.4078801819288558,-0.09420188835727707,-0.026971339842220828,-0.33131634723004205,-0.29193493897121137,-0.21537448229285905,-0.4645646643493252,-0.3332362431753924,-0.1062112032280384,-0.19319274812391354,-0.3847801777926509,-0.46233217267809684,-0.27168036600492734,-0.2954778028127608,-0.21162535139920705,0
7.4,7.6,4.5,6.75,12.15,4.0,21.625,11.3,522.0,516.0,280.0,461.0,822.0,255.0,1505.0,764.0,18.0,18.0,17.0,17.0,21.0,19.0,22.0,20.0,-0.6806432683017966,-0.3576161978948489,-0.055266730591280774,-0.1500083534246083,-0.4822737151622714,-0.07492721450017537,0.06652658580270292,-0.0611832307712789,-0.5936907421195251,-0.6302874596389959,-0.5178585099408899,-0.3546741089328612,-0.57910426407353,-0.5727985217388742,-0.2783618331062449,-0.3972477879787579,-0.8251631607678315,-0.6124445268949408,-0.4852265113652935,-0.32926211696030877,-0.29338062659782055,-0.06450685503344149,-0.041025801768143945,-0.33029832881389554,-0.7319839129302402,-0.5341208269472209,-0.19785088893842628,-0.23612085094176877,-0.6321102909698292,-0.2737004728377708,-4.234074532295821e-05,-0.15815086024845004,0
6.225,7.25,3.55,7.025,8.15,3.825,24.55,12.25,447.0,462.0,217.0,492.0,539.0,250.0,1570.0,801.0,16.0,14.0,12.0,17.0,15.0,11.0,17.0,18.0,-0.8840117545884382,-0.20593085895443392,0.25506472738825015,0.2564736379539952,-0.301157209736954,-0.2820268871043242,-0.4157881773697375,-0.31773294015161585,-0.3319401330076428,-0.08197999781590021,-0.16276214647888462,-0.20530139178547924,-0.7514169787766504,-0.44774984209302465,-0.030301545552861072,-0.12180623236213554,-0.7183357592291486,-0.38110760502426344,-0.7316166147232483,-0.5905633505130714,-0.3186393942897734,-0.34509875326709233,-0.1751467842035005,-0.15174944971282264,-0.6209100072632938,-0.5993582379940382,-0.3778497565515272,-0.503293290159476,-0.62100223448353,-0.36994782812551164,-0.22689167575753613,-0.28363753231011857,0
7.475,8.525,4.25,7.725,7.225,4.9,15.725,9.05,537.0,523.0,266.0,534.0,477.0,282.0,934.0,579.0,18.0,18.0,18.0,20.0,19.0,15.0,17.0,18.0,-0.8866939598213986,-0.37162089508642215,-0.2628169914144997,-0.1095064924607706,-0.3065076398481265,-0.2725401081548971,-0.3064567702952292,-0.3909548429987757,-0.521931813271766,-0.3656500844602005,-0.008470500010317305,-0.2415219306954083,-0.6149409485218644,-0.4297212311334301,-0.09937397725882294,-0.33315638969741096,-0.5737426896258735,-0.3769394056318067,-0.30644277351712895,-0.265086045434221,-0.4035593151345371,-0.4262381533154661,-0.3247367092966287,-0.215294494955063,-0.4628460176363912,-0.2478501026353275,-0.46621299585261533,-0.4704077584081923,-0.3767113758618583,-0.44222663693542164,-0.12491039864077874,-0.21184454918029774,0
5.525,9.7,4.475,5.325,10.05,4.6,16.325,7.875,360.0,624.0,297.0,366.0,639.0,303.0,1063.0,489.0,18.0,17.0,20.0,21.0,18.0,17.0,19.0,14.0,-0.5204268447489627,-0.3065850213333987,-0.4997040167239147,-0.43719640988600766,-0.37145149178559633,-0.22402044963976211,-0.24282228851569956,-0.06911745182806212,-0.548151087494257,-0.2547177138261857,-0.36498788424667816,-0.3423005608069342,-0.48000679116179845,-0.14473262607376064,-0.2520003286107907,-0.32338874921572464,-0.560550592547183,-0.21805791765333152,-0.21741458136698652,-0.2947156543106231,-0.47351581586398445,-0.3901847461205065,-0.3828595241819875,-0.5065610841879188,-0.46965586415999655,-0.15509801949528906,-0.35783182418398773,-0.5012880381804892,-0.5009708949560134,-0.3993837880594115,-0.4571839841829406,-0.15236058616209439,0
5.1,7.15,3.425,6.65,11.625,4.65,18.925,8.3,345.0,452.0,210.0,431.0,751.0,304.0,1139.0,573.0,19.0,17.0,17.0,20.0,22.0,13.0,15.0,20.0,-0.8546351812984635,-0.6664564860039491,-0.41843970777626344,-0.26250739979453336,-0.45234586501660023,-0.2128049032294365,-0.36410295139610244,-0.13771365385683107,-0.41685849765873095,-0.26502406309196985,-0.427973295068485,-0.35713960018623353,-0.5880032046867745,-0.43288938502291435,-0.4027717323073458,-0.35646134378142746,-0.9128453301776153,-0.8678749846502435,-0.3867759517971798,-0.22929360608996513,-0.5503954835612841,-0.389406284251343,-0.5048096842530582,-0.4629657871365339,-0.4222739418424119,-0.8177872901608634,-0.3896439764186657,-0.5943699003144887,-0.6852498499822012,-0.510600763381226,-0.09216812538053169,-0.22104421603020827,0
3.525,8.325,3.075,4.65,12.4,4.6,19.45,9.575,232.0,528.0,199.0,248.0,894.0,312.0,1195.0,675.0,19.0,18.0,15.0,13.0,23.0,18.0,14.0,20.0,-0.33956539935708524,-0.08523377239309546,0.10268308448078797,-0.17031993421740457,-0.3205491421386997,-0.08584310209952631,-0.18510133926401898,-0.02340067142860748,-0.4120110087888359,-0.47220737830669063,-0.21239098652564448,-0.12215852022085816,-0.3162366653324338,-0.3918903818117009,-0.22158819322133436,-0.20865916438689006,-1.1008818163942888,-0.548287485895045,-0.2030404202411878,-0.13285200207426676,-0.6049313478232398,-0.34309324426152704,-0.5212221421547222,-0.5405371427918894,-0.49115190733000896,-0.5136762968250412,-0.18608526748553716,-0.26309764457422624,-0.6285712953145944,-0.30188966768293657,-0.02079482098945713,-0.09915825970461975,0
6.275,8.225,4.325,6.2,12.975,3.6,18.85,9.35,430.0,500.0,275.0,377.0,891.0,205.0,1151.0,559.0,20.0,17.0,16.0,13.0,23.0,12.0,18.0,16.0,-0.432401555974459,-0.1472466683329365,-0.37261968734744305,-0.38322182600162874,-0.38007853761724475,-0.5713172704163119,-0.339841634482966,-0.2092059381435184,-0.6586675220996492,-0.6685521926648077,-0.28529080604036877,-0.2974971571905992,-0.4666211572416041,-0.5232147264188121,-0.3009559090784025,-0.46915165784110013,-0.81477991620629,-0.4458631979952196,-0.2999911783366369,-0.2419038460951309,-0.08780389619391012,0.0028500002083887686,-0.17267162093381494,-0.5553794900977379,-0.3402513543253137,-0.04869959520647011,-0.38945093943965287,-0.41036984565333495,-0.4650247700272686,-0.5129693819280678,-0.1409020416381104,-0.29862292524775197,0
10.175,11.875,5.45,6.8,11.925,3.95,20.0,6.475,686.0,838.0,366.0,399.0,795.0,224.0,1311.0,383.0,17.0,20.0,20.0,18.0,17.0,15.0,16.0,16.0,-0.6082818212272506,-0.07657752137275942,-0.3944015030580852,-0.31366276609763555,-0.7353009496122765,-0.39730833035168517,-0.12720809472398673,-0.07907230920293243,-0.5000926382812473,-0.42124431697201903,-0.23729210856741909,-0.26773815919936883,-0.632303720915652,-0.6782107337042735,-0.7246937752524636,-0.5226712257165098,-0.838910342191115,-0.6025001896465316,-0.5565973331500823,-0.3637555043298844,-0.2289169128681398,-0.5261162620395684,-0.37375329559631326,-0.37049303987159676,-0.6108189746868697,-0.3896380835249934,-0.0910364902438945,-0.2559770909533058,-0.2787634683740528,-0.13086841841889116,-0.10231835703970085,-0.3678774431404075,0
20.0,16.3,7.4,10.45,18.425,8.75,30.275,12.45,1334.0,992.0,520.0,680.0,1300.0,462.0,2053.0,714.0,17.0,15.0,19.0,21.0,24.0,16.0,24.0,12.0,-0.39137244705350277,-0.06315317508267011,-0.01573529043261049,0.06593903221230014,-0.5795667040607283,-0.637443087987742,-0.392158021568523,-0.39437382060305337,-0.6638968315466441,-0.36739006344872654,-0.287147931420569,-0.3626057416979746,-0.4903931125530785,-0.07820754767194396,-0.4821542175290355,-0.3920861290236812,-0.783575978539825,-0.4628863786951243,-0.309627084602398,-0.3973003786886629,-0.04548333830555735,-0.10456732176770328,-0.20522661796825747,-0.09787991041273067,-0.592355385017558,-0.12690970466268664,-0.1732417464574235,-0.24524708388762423,-0.28621254224668735,-0.1289769302610515,-0.16003719791449691,-0.3584208022666188,0
18.65,15.15,5.75,10.125,11.275,9.55,32.625,14.225,1257.0,980.0,389.0,628.0,727.0,536.0,2109.0,974.0,17.0,20.0,15.0,21.0,19.0,16.0,17.0,20.0,-0.6222520794333452,-0.4606743227199262,-0.23411579023843157,-0.10764876424009714,-0.6130124302047938,-0.6108817456307243,-0.25890464122391865,-0.15830307136179822,-0.6654480295263573,-0.5718289603330495,-0.4248121377270735,-0.2682602652431819,-0.47985660809656416,-0.33984934848324444,-0.29426442035240263,-0.16624319356655493,-0.5154414691547775,-0.4544024811930504,-0.2702697974285321,-0.07262091973202423,-0.21921386088984388,-0.12088925843778293,0.08698314630680805,-0.19230623587704523,-0.545107635565869,-0.4449022021282041,-0.24886466955014142,-0.4480446330233036,-0.5978913490936474,-0.26313317466446917,-0.15976836234313954,-0.2601029781416387,0
20.55,10.325,5.475,9.95,10.525,9.225,30.35,15.65,1458.0,636.0,394.0,648.0,665.0,570.0,2123.0,1072.0,21.0,18.0,21.0,16.0,17.0,16.0,23.0,20.0,-0.6625479296037676,-0.5183616872521751,-0.37900795705493007,-0.3452270352208861,-0.14276422978231643,-0.2018079313339682,0.2473002867774521,-0.04694929735039897,-0.7432601803028533,-0.23608205049368797,-0.19740323850570607,-0.07849200034446786,-0.6549354877848337,-0.42016927578920776,-0.5958666021871873,-0.38979359986316386,-0.5759693618767495,-0.5415697804176189,-0.44372891440206425,-0.31751244182485266,-0.34046707129425346,-0.48984163367552974,-0.22886867723326806,-0.5029067797633501,-0.7726726378548264,-0.4452659804778721,-0.46284138043463763,-0.33778591561864013,-0.5722303674145631,-0.21460786228087228,-0.15068702972012804,-0.15536611296872224,0
19.825,11.4,5.55,7.95,9.75,8.375,26.8,13.4,1307.0,712.0,371.0,507.0,623.0,497.0,1857.0,810.0,16.0,17.0,18.0,15.0,19.0,13.0,18.0,16.0,-0.7059601357689979,-0.5335703161122288,-0.5995031761416829,-0.3750950665043182,-0.3645113985580526,-0.3869703024483983,-0.062069767890975784,-0.2692536849462688,-0.9482373584403699,-0.7756408227585725,-0.3508800022811689,-0.04725501389207649,-0.5798391133259674,-0.548496426582268,-0.5158357898911434,-0.35813846712153036,-0.6430863379391502,-0.43182576345131035,-0.32229999604573034,-0.22659233546199808,-0.19306838465811935,-0.25314346728529497,-0.11102970796539009,-0.242465419055708,-0.5948920936489733,-0.38979552813497614,-0.5315354559846331,-0.2397685573913774,-0.5083094007584585,-0.41238806908737313,-0.40160367598112967,-0.176923075774389,0
15.6,10.625,4.575,5.7,11.4,5.825,21.275,8.15,1056.0,653.0,287.0,372.0,757.0,304.0,1477.0,533.0,19.0,21.0,16.0,16.0,21.0,13.0,18.0,20.0,-0.6689593995408425,-0.6165168050127636,-0.4425400041302358,-0.29477848908116683,-0.393452367610837,-0.22657098445744167,-0.3027246235967138,-0.03153176944598496,-0.4081496016993686,-0.20532753657103453,0.07486703146814251,-0.027222278850009052,-0.3752198007650271,-0.41526325496457533,-0.2647992166333485,-0.3176962208098627,-0.6721710107356305,-0.3907481553853366,-0.20320946085970912,-0.12434278184269279,0.07804825908702562,-0.10132471639485555,-0.19059323139467438,-0.12949496284322778,-0.4706240985721138,-0.501601434173538,-0.26001453065127805,-0.4498874248117706,-0.3598510914436081,-0.45746745685445683,-0.149631845998483,-0.20852655773061815,0
16.9,9.675,5.75,11.8,8.3,6.625,15.2,8.375,1137.0,615.0,337.0,538.0,588.0,431.0,974.0,555.0,21.0,17.0,17.0,15.0,20.0,16.0,15.0,17.0,-0.6675414534661906,-0.47641600457264527,-0.41467489250322,-0.025345976168024864,-0.3856316404138191,-0.05305644399311924,-0.21479421393156867,-0.34933792784702467,-0.39327490439726065,-0.4255995308023095,-0.11722874149976108,-0.2868467245674153,0.5124206316538189,0.031111072822844723,-0.06809216021481318,0.05624608256026516,-0.4615198343487479,0.08855414344120814,0.0764407532938228,0.002985470396013484,-0.29652241940792134,-0.17237592053859147,-0.18375347226113867,-0.3344556290880288,-0.4480599366326893,-0.23344782757871252,-0.01441283332167898,-0.28492090117974017,-0.6650327088203085,-0.703185973654393,-0.3055235405667472,-0.07845636433561197,0
14.175,9.3,5.425,10.15,10.8,5.75,20.525,8.975,934.0,634.0,345.0,544.0,697.0,363.0,1193.0,601.0,16.0,23.0,19.0,18.0,20.0,19.0,17.0,19.0,-0.7120572270552086,-0.36256082202457895,0.05965249697409903,0.17277162788564068,-0.2395780719999004,0.15652942179968435,-0.05401211584601869,-0.41292760399579553,-0.3870056770545207,-0.3166369292546084,0.034287519790954166,-0.15207936122501145,0.18791279466233915,0.1769736342686616,0.19004301412452662,-0.16798189753503404,-0.6284691980807638,-0.15616691917245012,-0.3035615050033912,-0.2997025323777602,-0.20523610765622746,-0.11959223117509073,-0.12487674439152166,-0.23423803548849723,-0.3594781052047123,-0.35585594901525963,-0.24316457003387704,-0.3833818009349556,-0.6153453746682814,-0.3989113693068358,-0.5734006416448194,-0.15970920300877955,0
