0,1,2,3,4,5,6,7,8,9,10,11,12,13,14,15,16,17,18,19,20,21,22,23,24,25,26,27,28,29,30,31,32,33,34,35,36,37,38,39,40,41,42,43,44,45,46,47,48,49,50,51,52,53,54,55,Gesture
4.4,1.575,2.025,2.825,9.775,19.9,3.8,5.825,294.0,87.0,110.0,167.0,555.0,1268.0,216.0,366.0,19.0,11.0,15.0,13.0,11.0,15.0,14.0,14.0,-0.40248537303337767,-0.08904644891815414,-0.004268617232249411,-0.15339184012698362,-0.12188566368506432,-0.0619374779958569,-0.005361827606968274,-0.08491096252341289,-0.026405747085764538,-0.499303156514256,-0.16521952577502497,-0.3860496003410355,-0.12707346764111976,-0.5077877020765068,-0.2647163182590562,-0.4816157351257398,-0.28667779831413437,-0.09151288409015487,-0.13901760827433143,-0.40395235181479305,-0.32570102618353813,-0.3811286446476511,-0.1947571742072907,-0.36546788954364556,-0.38476435562062605,-0.6175108726222021,-0.44628623893838365,-0.6553226683619308,-0.6219926089119299,-0.5178014988189613,-0.6788153572218417,-0.4997831389516334,3
4.675,1.775,2.55,3.175,10.075,14.425,4.075,6.175,314.0,95.0,146.0,191.0,644.0,882.0,238.0,405.0,19.0,12.0,12.0,16.0,19.0,19.0,18.0,17.0,-0.512425849735537,-0.24150989070791554,-0.012391026030296156,0.11348675087017329,-0.10527549689923754,-0.5045598683411519,-0.06232025167393706,-0.199711121956304,-0.20990159839309866,-0.6191554273848637,-0.2820489813791384,-0.3451952868881359,-0.22708254968181016,-0.28304989858853535,-0.3634543008870358,-0.16837998001244386,-0.48950457199590913,-0.22666953672651985,0.142347816007353,-0.1878062281763195,-0.27075814021005656,-0.1703408774972265,0.15722887215476994,-0.010455165813819788,-0.27462018012847433,-0.28873518791841213,-0.21656157821753205,-0.1317944066405966,-0.34160179618356035,-0.17081484066145702,-0.22755837026007364,-0.3553189533784786,3
3.6,1.775,2.275,2.925,9.45,15.075,3.375,6.775,207.0,95.0,150.0,196.0,618.0,996.0,194.0,478.0,13.0,14.0,14.0,15.0,19.0,19.0,11.0,17.0,-0.32474032491386656,-0.1391982836285761,-0.1805614897589578,-0.13259345550580104,-0.26910293822166204,-0.4791601110818356,-0.19839971481687446,-0.3656067264466219,-0.4403854592507842,-0.4642197869657489,-0.3170182576788902,-0.3262094174214442,-0.3897764539815253,-0.38235643354735194,0.002375079012079601,-0.27596759116504793,-0.6491388686911481,-0.456753037140696,0.05872719087208918,-0.17296918637633107,-0.50251744772712,-0.2558007288378084,0.11920593996129014,0.09145731866349376,-0.05289470912534525,-0.5852457208248705,-0.026992637318145038,-0.10509018171224997,-0.3706520664837592,-0.06958688896156699,0.06859413434085314,-0.11993895672269762,3
2.275,1.475,1.9,2.4,7.275,16.175,3.15,3.975,146.0,84.0,122.0,141.0,500.0,1026.0,174.0,247.0,15.0,13.0,16.0,13.0,20.0,15.0,14.0,15.0,-0.5374850998570082,-0.29778261139789175,-0.3313543925060327,-0.20659669566490116,-0.21969662319259883,-0.240660620145925,-0.23357776131705976,-0.16825957242356532,-0.2936507764140493,-0.2581995875941596,-0.1537870066239987,-0.20562655848626915,-0.40496321208577135,-0.1704889697198228,-0.03892986424121595,-0.1567809113659902,-0.623412298413197,-0.35941985380694036,-0.30874614054640376,-0.22632125895463973,-0.5241786714544734,-0.5273409545220683,-0.08031575396559903,-0.0963470283096686,-0.07301662735936021,-0.2768926630753261,-0.15132005239313667,-0.20686666605406961,-0.5268127257193255,-0.211981675321384,-0.12258561418274609,-0.29739562873212827,3
2.375,1.475,2.35,3.25,8.45,17.35,3.825,6.75,156.0,86.0,145.0,188.0,567.0,1214.0,213.0,424.0,16.0,9.0,11.0,13.0,22.0,19.0,14.0,16.0,-0.38824017094358826,-0.09278028412503639,-0.3734751411658921,-0.22645411867829024,-0.22229607379783384,-0.5083374773169307,-0.2972675976215204,-0.35991194405236054,-0.19095980534270351,-0.3946375420671712,-0.21266727689368758,-0.4043912227466776,-0.3532993412664993,-0.5245403006287234,-0.2350292357162783,-0.5703359361665085,-0.6128521376228155,-0.3535591002989184,-0.2516283626715268,-0.284864437733146,-0.4829929906686319,-0.3706411727453425,-0.29742143721387154,-0.46370610256757605,-0.22392741133917074,-0.48262820482381774,-0.21874029517625887,-0.43334881260750185,-0.5048615870048756,-0.5220025579323616,-0.352418404075755,-0.23774677737174385,3
2.4,1.825,1.95,2.825,7.85,17.7,3.625,5.25,151.0,83.0,97.0,162.0,481.0,1163.0,199.0,306.0,12.0,13.0,9.0,15.0,17.0,18.0,12.0,17.0,-0.43638296922897796,-0.2323256543778879,0.07077745551171573,-0.1946515512830477,0.04837877796564815,-0.4723323076224582,-0.04071567399112633,-0.4053044750676846,0.3572893560053097,-0.518815010791251,0.0037596836932105348,-0.219946590617005,-0.2052927051943177,-0.44948229524021893,-0.2024755804159429,-0.48253213891210545,-0.4904046075078439,-0.5357370640020153,-0.1662516629300282,-0.22510881806620425,-0.1804873530609921,-0.34071539230322645,0.005070100187774616,-0.2478976027722326,-0.3604899287719404,-0.38964085132172005,-0.38615150929540254,-0.22602729218909914,-0.22301164415192673,-0.3721509349101355,-0.08442339451191602,-0.25486532371586323,3
2.625,1.7,1.95,2.925,6.75,14.375,3.75,3.85,150.0,82.0,103.0,189.0,476.0,842.0,184.0,196.0,14.0,13.0,13.0,16.0,18.0,14.0,12.0,11.0,-0.09868510309441829,-0.28291851888461783,-0.12128479409507581,-0.0758816809952656,-0.000136698552451705,-0.04969775889721692,-0.03734510029887149,-0.279562083237754,0.0495376396097761,-0.2728200420997274,-0.1385414181784858,-0.49266114865969496,-0.3982159556650546,-0.15036121274865394,-0.1125599944372965,-0.12791834066963184,-0.5311316918462914,-0.09585914682221047,-0.20754670416196652,-0.23453631081143816,-0.22589640270524047,-0.2219774620947896,-0.21028516980860298,-0.3951228508249306,-0.1673997695819628,-0.30681170416518627,-0.23824513359997299,-0.10760735529868243,-0.10911038948312256,-0.19150801722800842,-0.45278257777251896,-0.029294333414929957,3
1.925,1.525,1.85,2.475,6.55,13.475,2.975,3.375,114.0,88.0,106.0,149.0,476.0,827.0,158.0,208.0,16.0,13.0,10.0,11.0,21.0,14.0,15.0,14.0,-0.22696330176038984,-0.3635968214022012,0.1693796521005285,-0.1975178775657811,-0.3660513118751539,-0.2568290391642947,-0.15507938386730483,-0.30176081608682226,-0.26615945685451886,-0.06868238088129945,-0.28498299321894277,-0.2430222329119726,-0.2590759189030312,0.026412388271485017,-0.22294261671279808,-0.45591844408718557,-0.8640718306618982,-0.6400491182902078,-0.5823752236976057,-0.533680686728179,-0.4679685283421644,-0.4089924935222243,-0.4917482086165666,-0.3803939505113493,-0.13056740063608407,-0.25950789788157713,-0.21775708041384867,-0.23380254739456424,-0.6390170451945527,-0.7657012070457287,-0.4494467934162448,-0.41805200927616687,3
1.675,1.7,1.85,2.325,8.675,16.425,2.825,3.575,98.0,90.0,91.0,134.0,570.0,1075.0,159.0,220.0,11.0,13.0,11.0,11.0,18.0,16.0,13.0,16.0,-0.047092918361385946,-0.0492054761403677,-0.2000170261555892,-0.03073713553728714,-0.057977683937013934,-0.13672656445838027,-0.3212632630187792,-0.181175452093129,0.12388361411252415,-0.4366415664387827,-0.11236835636257061,-0.1242052095923181,-0.07268819774401122,-0.27507082997160454,-0.07086847435726944,-0.3145926461249404,-0.8682666567333032,-0.7767104205801167,-0.4421373002055189,-0.27249529181832705,-0.551634362889598,-0.45442894020748603,-0.21145592484758358,-0.2802123175671414,-0.3733023561981945,-0.32363865133451436,-0.2528276520706931,-0.07205249105660592,-0.435336209716105,-0.3888837258158431,-0.16803594570880334,-0.26355762139779193,3
2.7,2.0,2.475,2.825,8.0,18.125,4.25,3.425,186.0,130.0,150.0,173.0,489.0,1058.0,269.0,216.0,16.0,15.0,15.0,15.0,16.0,16.0,22.0,18.0,-0.4817162945058367,-0.2262738110220586,-0.29672446731943575,-0.28629234294849315,-0.48151108653371083,-0.15579042143304306,-0.6731642012611955,-0.4624102074937854,-0.32722129943608186,-0.08181834759486913,-0.586382435969797,-0.3975199160456312,-0.23860156246297276,0.06830538620616405,-0.5154140152216194,-0.22506745681411944,-0.39031389068099526,-0.17221623023361832,-0.11696117688660161,0.029163096776847558,-0.31458524184895725,-0.08103664749643436,-0.31850041412141106,-0.07991261358139758,-0.5009255351897514,-0.18659280884861848,-0.5629319798062116,-0.4357994474239538,-0.43950681623216,-0.20240149842633245,-0.3252072425458949,-0.30899781155506284,3
2.725,2.075,2.375,4.15,12.525,30.125,7.1,3.85,175.0,131.0,139.0,271.0,871.0,1858.0,461.0,250.0,15.0,10.0,13.0,15.0,23.0,17.0,21.0,16.0,-0.25462189076102804,0.10352995561392189,-0.17851467321606668,-0.3553579618952192,-0.23361721982040187,0.16973088629700342,-0.24607464216523825,-0.4342181408839355,0.012372881814819124,0.07156944505869126,-0.28508955413173287,-0.06294820438584467,-0.31575190059591995,-0.0766299963091144,-0.027461108778610847,0.04263158108832353,-0.7261061395090926,-0.5257382043421691,-0.3227213239930015,-0.3588423232304229,-0.7852558798110013,-0.7716859040096324,-0.38853576891394287,-0.18767552209998764,-0.4574493549451887,-0.47044461208504146,-0.32989979551466325,-0.552577369396335,-0.5720425191258764,-0.42771405693100634,-0.33139776210523425,-0.25933729890627405,3
7.4,3.35,3.375,5.4,15.25,30.1,9.375,8.0,432.0,163.0,199.0,315.0,940.0,1947.0,576.0,493.0,15.0,16.0,15.0,17.0,17.0,20.0,19.0,18.0,-0.27109593562649476,-0.14200719622169897,-0.4080674972930944,-0.3637359632218739,0.0011452521265836923,-0.17808744564340073,0.034213922583612125,-0.3937433585084034,-0.33449213036279474,-0.1513729520862945,-0.23769890113116815,-0.24596203246492654,-0.3630527518326299,-0.4044599985396385,-0.20859664579507595,-0.08256590658683807,-0.4792298978854202,-0.44196277845242427,-0.13624278131716205,-0.11375138509962882,-0.3725741398999656,-0.21204411766977505,0.05400785644156625,0.013661698069683221,-0.364872536809187,-0.29755861479827256,-0.0863301948424615,-0.3136908770203921,-0.3247952258167794,-0.25564312054223715,-0.25975851912959746,-0.481409364225666,3
6.15,3.025,2.9,4.425,15.825,35.4,8.65,8.025,363.0,189.0,180.0,274.0,1071.0,2353.0,578.0,478.0,16.0,22.0,15.0,16.0,20.0,21.0,19.0,12.0,-0.1990682600464958,-0.041920016801894534,-0.042659800689937445,-0.13703321821460945,-0.4545238589866198,-0.32611353979726904,-0.08032192310828716,-0.2485818708434715,-0.37681278897393994,-0.3227243227925671,-0.32708029254938414,-0.4789317837566731,-0.5532343735567006,-0.4866086341560373,-0.36122151822575604,-0.3535053416083663,-0.8460443863449243,-0.6441026672102262,-0.4916896152776274,-0.2809566595473841,-0.7262177340746946,-0.7863772816897427,-0.4363628272998364,-0.23449433361580788,-0.8748614502727824,-0.7265719221598851,-0.6103613113409843,-0.42814310390068266,-0.2896271379422437,-0.15414683359341336,-0.3676858023812588,-0.6089437270250339,3
5.2,2.65,2.4,3.8,14.325,30.0,6.9,8.025,351.0,166.0,138.0,200.0,1005.0,1997.0,415.0,456.0,19.0,15.0,16.0,13.0,19.0,18.0,20.0,17.0,-0.25762601362002185,0.2145061619556533,-0.01764915478116818,-0.11688847889666264,-0.3666834885380078,-0.10107819150765739,-0.13063192881676483,-0.14534153977227152,-0.48467040146973506,-0.35602423435581154,-0.5438023700552062,-0.42097562973666003,-0.3443340757080828,-0.36752008642473066,-0.37040022765306996,-0.44405694889902436,-0.8880884823821181,-0.7079945267500541,-0.6782968172930616,-0.38258803374212613,-0.6333592770546502,-0.36393712541463064,-0.22221774483795464,-0.19924554113168186,-0.33081612809716876,-0.060801425076809766,-0.21663861974647627,-0.05907117301762948,-0.31318373411616235,-0.19966729999991079,-0.40483123499916296,-0.11991906018258323,3
5.95,2.575,2.7,3.85,13.85,27.25,6.075,11.025,358.0,164.0,171.0,237.0,1003.0,1800.0,380.0,657.0,14.0,14.0,20.0,12.0,20.0,21.0,16.0,13.0,-0.14213969355310296,-0.0018717569637330962,-0.1329714493949931,-0.15694194143981247,-0.31263354962075174,-0.11620569712354345,-0.14626494845155466,-0.22547849526563432,-0.56593622448523,-0.34571703989938785,-0.2342978439054378,-0.21669008941937923,-0.5273287608004577,-0.47989208228836183,-0.4088564723397593,-0.36068957922134204,-0.5324684578129907,-0.11354677935371627,0.25285571368157167,0.03837716395207853,-0.4805946482275877,-0.3652216699105004,0.061121531416024534,-0.1145578200371627,-0.40454599025016114,-0.2660173369669478,-0.5688459303449688,-0.17032722482238416,-0.42229005268011083,-0.20954378450529246,-0.505321199073304,-0.268721692325184,3
4.55,2.6,2.85,3.9,16.45,32.225,6.1,5.85,261.0,150.0,166.0,238.0,1101.0,2140.0,340.0,341.0,13.0,14.0,12.0,16.0,20.0,20.0,10.0,15.0,0.03290943433740374,-0.09437135276068129,-0.04341257617061231,-0.11190843895601645,-0.3157795333803591,-0.388061589668909,-0.11392942191543483,-0.22071740755045835,-0.34269195262494645,-0.3336251517312153,-0.2685222758308801,-0.38256017541655923,-0.23706318307870558,-0.08595275399243343,-0.13875733129899318,-0.2620243807527244,-0.39199804116186227,-0.16523786235058846,0.1778552034954287,0.05927142605012176,-0.36880735313826846,-0.12259243601553266,0.12444451131424386,-0.12320100423066582,-0.17550455258294467,-0.252269583002737,-0.16084002996910632,-0.36968629534825065,-0.09520380337629626,-0.30626788480628103,-0.1214363892493757,-0.2031206553219598,3
3.975,2.8,3.6,4.925,14.95,35.775,6.65,4.825,236.0,162.0,203.0,322.0,978.0,2395.0,456.0,304.0,13.0,14.0,12.0,15.0,16.0,16.0,15.0,13.0,-0.4818502219764204,-0.5189053801461081,-0.3791809757361343,-0.25452076031773746,-0.010049098745255447,-0.4329631769953034,-0.010977210362043171,-0.5371499942186672,-0.2682757812289798,-0.39835376054303456,-0.35315647717318344,-0.3512591488673008,-0.30310330647560263,-0.21635127420518263,-0.2945278132695586,-0.39772659710710445,-0.6133330690699624,-0.327376073598022,-0.18475515793490413,-0.08496506188901395,-0.5222855333962405,-0.3263630091607868,-0.25074555684425426,-0.18719684462829886,-0.3163311491640781,-0.4141291370421383,-0.22099152189845375,-0.4344992422394469,-0.2946382991521718,-0.2297072226259379,-0.33204988996908014,-0.27208107987550895,3
3.975,2.2,2.925,3.85,13.775,29.875,5.025,6.15,261.0,130.0,168.0,238.0,828.0,1720.0,339.0,379.0,23.0,13.0,15.0,18.0,19.0,16.0,17.0,16.0,-0.23994672204113127,-0.03311540592804271,-0.259526452491541,-0.1546893682665728,-0.19899137879897305,-0.15607581466037668,-0.21753738404397457,-0.41760278521171695,-0.2846054134099808,-0.2651531421796811,-0.2687680702903683,-0.32540223234660226,-0.24745144635480285,-0.06524862343471043,-0.08312339821442845,-0.33516002065481454,-0.29259385740471966,-0.14508747502810296,-0.3407488084298123,-0.16596057983052723,-0.15715583752755843,-0.3765121123913901,-0.20205279284951752,-0.2695423504450263,-0.12878917417779215,-0.5079425401737484,-0.004340965888748858,-0.27950753412818613,-0.4396801871570743,-0.3134938975579479,-0.46681590151184993,-0.42527422696041484,3
5.475,1.8,2.2,3.225,16.075,29.95,5.6,6.775,373.0,114.0,149.0,225.0,1114.0,2065.0,376.0,449.0,21.0,14.0,14.0,18.0,21.0,21.0,15.0,18.0,-0.44815555717824646,-0.020223484145263728,-0.16791674684470587,0.013015314708005791,-0.28395118257801427,-0.020578863656869645,-0.008801528393650697,-0.007529740509073732,-0.43344112203999763,-0.21342706407676254,-0.12916946466735846,-0.2664530807275659,-1.0429951210112454,-0.5233793043771936,-0.17773605930698314,-0.058930010149640354,-0.6756477502073214,-0.4426760599738166,-0.09129690638157574,0.04020322131119243,-0.5681384812026341,-0.014249522303572109,0.04371452610867769,-0.055727954869260535,-0.33272204117066795,-0.21426481983979295,0.11394191975148676,-0.17817719589226128,-0.16514707418902663,-0.21004956834545305,-0.04680867858168869,-0.12782195857180723,3
5.925,2.275,2.65,3.625,12.825,25.25,6.2,7.375,365.0,126.0,156.0,228.0,787.0,1584.0,355.0,449.0,16.0,14.0,14.0,14.0,17.0,16.0,14.0,16.0,-0.07403822385906303,0.06266765687860246,-0.11635224063866764,-0.06773256887862224,-0.21556680731633193,-0.1683202820227879,-0.1504057939054803,-0.22185568939214861,-0.4270047561271323,-0.21139242946311612,-0.475767920114996,-0.40076809223300586,-0.41552805165673673,-0.08515369791064104,-0.18465114565318572,-0.1941651655283376,-0.32274541571947546,-0.2408801345225877,0.09301614737559964,-0.03930528221716745,-0.1637268361471046,-0.0576831248433832,0.16850076586487767,-0.19541945359494337,-0.24658287836828793,-0.04027689819812795,-0.04452285523980255,-0.12402934015205201,-0.21731435919272674,-0.17531431547087126,-0.19193044737079493,-0.07640846397646228,3
5.6,2.05,2.425,3.425,13.325,31.25,5.8,6.825,304.0,117.0,158.0,182.0,908.0,1911.0,328.0,434.0,8.0,12.0,16.0,14.0,17.0,16.0,14.0,13.0,0.014053605620209556,-0.09631934815448122,-0.1081746004336901,-0.09888450783773292,-0.255892634089743,-0.16294007115993123,-0.24157932832270937,-0.26889809579979707,-0.6241971897062494,-0.4733560718438012,-0.41207770932195853,-0.23144333308079554,-0.24632219218776277,-0.22413269677715408,-0.12845487289775087,0.027677670228718837,-0.6000048003585102,-0.2241146974939549,-0.1733667471291684,-0.06349713758055057,-0.19636755040985607,-0.10800679772885992,-0.11493382320665856,-0.2669161415739281,-0.2343858978277336,-0.6521318784339498,-0.13373958878208114,-0.23449462787417125,-0.3379809252790664,-0.10446546080929829,-0.11806054673979809,-0.060117974868082784,3
5.0,1.875,2.4,2.975,13.55,25.9,6.45,8.6,342.0,118.0,164.0,199.0,880.0,1711.0,370.0,557.0,16.0,11.0,17.0,20.0,17.0,20.0,15.0,18.0,-0.32351899467328926,-0.09624254296039426,-0.289516214243101,-0.01126076753428408,-0.5520682673050992,-0.43628549589643956,-0.4988008586594013,-0.3022469548021827,-0.6790955772151857,-0.4736321981985596,-0.6178688897192439,-0.35006272278266254,-0.5693552907911263,-0.1384048334564863,-0.18917298989185746,0.08183386101495391,-0.5174224555813847,-0.18504580721506111,-0.34431669658948233,-0.32043054206561883,-0.3863127477058395,-0.29715315184061775,-0.16711637874181767,-0.3486326012705407,-0.4382136141686035,-0.4374331777348269,-0.5490907401638327,-0.2894686794115376,-0.4705575948441348,-0.31736428879321665,-0.04375754562647848,-0.34851232703687884,3
6.2,2.05,2.5,3.35,12.175,24.55,6.025,9.1,403.0,129.0,150.0,189.0,747.0,1460.0,345.0,591.0,17.0,21.0,13.0,12.0,20.0,14.0,15.0,19.0,-0.3399230791447322,-0.28073678899033316,-0.1570707913229007,-0.2958321927382459,-0.4098494313150484,-0.316788686368995,-0.3255744264032157,-0.3373901844929837,-0.26141523594606736,-0.09872253791584147,-0.07790824054405922,-0.29595545825891534,-0.2608289891085696,-0.09554209519596177,-0.31726414672700304,-0.4492565532908254,-0.34529793220903626,-0.30878369480407064,-0.20230561726599208,-0.36052171905961106,-0.09335633033370141,-0.16542084934110252,0.07269554084126709,-0.4548524145504778,-0.23261001463994357,-0.380680984141502,-0.15416038287874903,-0.20382158030450143,-0.5684684227020382,-0.3853964023259289,-0.21376992505132197,0.056109755487394185,3
6.125,1.7,2.4,2.625,13.3,19.2,5.325,6.575,425.0,98.0,154.0,160.0,764.0,1059.0,329.0,418.0,17.0,12.0,18.0,13.0,17.0,13.0,17.0,19.0,-0.5239714317662154,-0.3456284344618425,0.0562873496468506,-0.28901036367277644,-0.24063438238994572,-0.006368602035237893,0.17594192404125947,-0.19635395136730383,-0.09611906741326978,-0.09026990708610531,0.26785901222611347,-0.31697553278524243,-0.16412335459602245,0.061192238338341656,-0.15966388091300687,-0.454083584811631,-0.30532464339792215,-0.29946863715136196,-0.2647640802991151,-0.41909570589984285,-0.044111713784574624,0.03220188647906965,-0.1393603716324608,-0.47303338726232164,-0.12866162253344332,-0.42663441759350207,-0.002928614342230664,-0.35296520038783263,-0.4501716693811834,-0.40688014012586743,-0.3433589284991344,-0.3152227466504535,3
5.0,1.875,2.2,2.9,15.975,30.95,5.225,7.075,313.0,95.0,137.0,201.0,927.0,1816.0,288.0,489.0,15.0,11.0,16.0,16.0,18.0,14.0,12.0,20.0,-0.1308520003144087,-0.20509970242448505,0.31180526670200026,-0.2753105167371437,-0.13813143692013485,-0.2951820586822539,-0.1542044277471934,-0.040521381968394,-0.4367858133913886,-0.33274992971036327,-0.3219502931040475,0.04164745871437702,-0.5995116800894121,-0.15955383847837268,-0.1662915092448903,-0.20579941689259795,-0.25348305576048086,-0.00913264599822689,0.06849153986658815,-0.2392818404643801,-0.17878094253816698,-0.20095205112453238,-0.24916914022243541,-0.19019908385888137,-0.27290929344874176,-0.5264818639808371,-0.46756478866928625,-0.24797410872822342,-0.5843850764784764,-0.2656623794176266,0.045794684791647285,-0.15309218899030563,3
5.75,2.0,1.925,3.725,14.05,38.325,5.875,5.875,328.0,112.0,116.0,233.0,891.0,2413.0,378.0,318.0,11.0,13.0,10.0,23.0,19.0,21.0,17.0,11.0,-0.20913309287248352,-0.03361549504211353,-0.2100095435386651,-0.304369624766725,-0.4253916911884748,-0.3330881812030682,-0.32596876758893906,-0.398362486523959,-0.037617421484156026,-0.02061059821102365,-0.4693561642018699,0.1231365953746475,-0.4481903602679987,-0.2578052362872905,-0.43862524576103173,-0.23601841685848093,-0.39119761190715263,-0.09403160469375585,-0.08110566331455728,-0.2818843403973488,-0.4225342937298834,-0.12057944795565613,-0.14573667718986272,-0.07021122635724526,-0.45749681423432587,-0.10095029328918548,-0.20241266091520121,-0.129530113516506,-0.07495631493395663,0.16747207032647948,-0.06236155827569025,-0.345075986826263,3
7.25,2.15,2.075,3.55,19.075,32.8,5.775,6.475,451.0,118.0,128.0,194.0,1275.0,2034.0,326.0,431.0,22.0,11.0,11.0,13.0,21.0,17.0,17.0,22.0,-0.43755623771556296,-0.19543403082595504,-0.15026613696728836,-0.17492747157894373,-0.4027491817350117,-0.33824964972863303,-0.2837678565032639,-0.4223453689175714,-0.3742593998173303,0.05997317280664599,-0.07718244022606184,-0.23165417166635568,-0.2571994520775002,-0.03985451003910528,0.011257387744617983,0.12127142264539913,-0.4929258971785096,-0.0976865787075891,-0.07033120652960383,-0.35553887699949804,-0.39936195999903923,-0.07074401069648131,-0.36882252025742446,-0.39833514043290014,-0.33103613454877373,-0.03268660502819819,-0.20798048891232981,-0.3091496165019813,-0.32720362118907487,0.21819287009701435,-0.047932452470146034,-0.19365621822894685,3
6.35,2.575,3.0,3.9,23.925,36.45,6.375,7.15,432.0,150.0,200.0,239.0,1556.0,2425.0,376.0,482.0,20.0,13.0,19.0,17.0,20.0,21.0,18.0,16.0,-0.546769977120459,-0.37712977402066344,-0.3742967409871076,-0.1410386534990451,-0.4057647208766985,-0.48283070693742147,-0.1189914876198448,-0.49141172650400794,-0.5547893119688198,-0.3915378352638624,-0.005498356545551117,-0.2624608603014214,-0.2396195105029184,-0.25646175819671085,0.3231558950768655,-0.1376469418522328,-0.22679531012126092,0.03954318658154662,-0.0032983262822406565,-0.3866601100340311,-0.4314130272898027,-0.15611153350803172,0.13578101414141414,-0.19328946777818914,-0.500271550303481,-0.5017855120329874,-0.2684680339571797,-0.3348675837028849,-0.5473871746091961,-0.4573659790266342,-0.13933789944377925,-0.22275724459293209,3
6.125,2.775,3.1,4.975,22.65,36.825,7.225,6.6,395.0,146.0,184.0,283.0,1439.0,2287.0,408.0,350.0,19.0,15.0,13.0,11.0,17.0,12.0,14.0,14.0,-0.2469353163864694,-0.046047641424239255,-0.2289309921251847,0.03559090896415386,-0.3670886004951173,-0.3659574711328416,-0.5329258920009762,-0.37551113590601987,-0.4252118496052352,-0.4226558682453944,-0.5204962345798425,-0.45464331345286096,-0.44937980460784327,-0.760540251917518,-0.4127904951867888,-0.6260783566675984,-0.3416924372083811,-0.5445908057051341,-0.038620298473726576,-0.38499611717326854,-0.5474910964175892,-0.6070318385646534,-0.46541234238724316,-0.5961179411338656,-0.4791687983123715,-0.5759564161416839,-0.7222036529667966,-0.4246012672132914,0.09768812492515735,-0.24552294146147408,-0.040744866782780775,-0.2650764168134261,3
5.2,2.6,2.8,4.175,21.4,32.6,7.05,7.475,322.0,152.0,182.0,249.0,1359.0,2123.0,465.0,480.0,18.0,14.0,16.0,16.0,14.0,17.0,16.0,19.0,-0.39256121090325646,-0.31498907128073833,-0.20255314904370364,-0.17299605895797993,-0.38084276564532965,-0.22153648817543412,-0.6433049029068043,-0.3347620520429295,-0.39687004596090936,-0.1717245355601087,-0.48384223231754103,-0.14072327987367708,-0.284773934160366,-0.3992445244477701,-0.1657338702044155,-0.3557561595805395,-0.4299512523797448,-0.5155316476000037,-0.20179107025386317,-0.4709811107334352,-0.587302549182779,-0.5087556167048423,-0.4703446411093369,-0.401434972652873,-0.480690431649539,-0.42804394633183906,-0.5336336459368946,-0.36320510947135953,-0.29268059789178047,-0.5255745501309845,-0.10314734714322263,-0.40931191541752754,3
4.775,2.275,2.65,4.025,26.325,34.225,6.725,7.8,286.0,137.0,170.0,280.0,1732.0,2337.0,456.0,555.0,17.0,12.0,14.0,17.0,21.0,18.0,18.0,17.0,-0.2338023276536202,0.21311140726604896,-0.14883955096315102,-0.3895107749548913,-0.4263487898855774,-0.27527827694518103,-0.2664722663267106,-0.10519631165626113,-0.4962063904139903,-0.25545764440070456,-0.34662969147516404,-0.16534969921849754,-0.5315380869994336,-0.32569191614860665,-0.21564047471455897,-0.22386193702701887,-0.7775293472986736,-0.6414213826213676,-0.6684518893868369,-0.413491948331778,-0.39141762627413,-0.21073718779028844,-0.32275080163901215,-0.2399522157721416,-0.37062655678690987,-0.14603719745182872,-0.17727663849573866,-0.35638893579637976,-0.5665327580450286,-0.15878008831185,-0.16192056404621272,-0.3572562809101474,3
5.75,1.8,2.2,3.75,16.875,26.8,6.75,6.375,346.0,89.0,127.0,252.0,1129.0,1713.0,460.0,401.0,16.0,11.0,9.0,15.0,18.0,20.0,22.0,16.0,-0.21210887192571967,0.19390120908491698,-0.17685716078837233,-0.2940038105847058,-0.047919443496977104,-0.2538325107774447,-0.11176164193630829,-0.2439374899796546,-0.46237626627138395,-0.3813834727623428,-0.31224947860469365,-0.3907640407409634,-0.5599097666460403,-0.24247876934407467,-0.21762534266767958,-0.24962624089517213,-0.5257692554078266,-0.0965612755696878,0.1238830646328468,-0.009554278108322843,-0.4631983629063269,-0.20163886173394982,-0.19210821516393342,-0.29633259960882574,-0.6180289923369546,-0.24406609640572283,-0.5731992854939261,-0.5131217662732649,-0.5372552552533896,-0.30871244656556124,-0.45781726637347525,-0.4030604494093259,3
6.325,2.325,2.35,2.85,16.525,28.9,4.95,4.75,407.0,119.0,124.0,165.0,1086.0,1846.0,301.0,330.0,14.0,15.0,12.0,11.0,21.0,21.0,13.0,20.0,-0.35560847716046673,-0.1929726184726808,-0.21308954402689573,-0.1815973473825731,0.02115178087237763,-0.24009975760288713,-0.2707592393807532,0.07150777411312588,0.04546274452165559,-0.167911524452163,-0.14201733783980053,-0.05666660606478321,-0.08126756527047814,0.08387920296984032,-0.20452609842516806,-0.2119166504275993,-0.6762705543977559,-0.3061263536589269,-0.4332461329211668,-0.1462534089710568,-0.3862542886530376,0.11907284350223463,-0.1823935359921312,-0.2535905724963348,-0.2701807555999272,-0.1999669315397839,-0.3526119009176986,-0.047261816118943,-0.6331776172585792,-0.29347444019635294,0.103937556724104,0.11692785797667248,3
4.975,2.55,2.3,2.725,15.325,24.125,3.575,5.7,320.0,145.0,129.0,173.0,1089.0,1509.0,198.0,346.0,16.0,17.0,16.0,19.0,19.0,16.0,14.0,14.0,-0.23811673884417192,-0.15512385447191368,-0.10479084441767889,-0.022935986911360576,-0.12236776140147805,-0.3082316917469568,-0.2777388989203682,-0.11936824180977286,-0.10287495222941699,-0.3576377118786711,-0.12457716906782422,-0.2738558318467879,-0.417237292556414,-0.10924076174068045,-0.04799043433156091,-0.05112278224608848,-1.1828759747515278,-1.027482334819103,-0.9301816600404779,-0.5952896847818997,-0.5117836686815397,-0.3883788314041676,-0.3413095460381526,-0.1943149906072711,-0.26827495578139965,-0.13157937490622773,-0.041329608029495105,-0.055239201546053565,-0.30089219175808507,-0.23375825029240802,-0.4599540139459831,-0.10586960583230333,3
4.325,2.325,3.025,4.025,13.45,30.425,6.375,7.15,285.0,131.0,164.0,220.0,901.0,2020.0,384.0,418.0,19.0,16.0,10.0,13.0,22.0,20.0,14.0,15.0,-0.15229634014453253,0.45994271219576505,-0.17788017450390928,-0.1684798924247015,-0.40351085204995224,-0.31870369127057957,-0.04050210499740075,-0.11989213827686203,-0.25964540553487364,-0.36309798555888556,-0.17041491410769488,-0.34650607803859246,-0.3673837278007561,-0.37168392861906185,-0.4501388334089997,-0.2557711303921887,-0.6024122292124356,-0.48435953701797274,-0.4032557226515769,-0.24862334900375893,-0.44413230553637456,-0.22377998510831515,-0.25049833920546805,-0.18376410094150863,-0.3331557725308411,-0.035688818635137086,-0.43794384850327167,-0.429224173678754,-0.11942986349344623,-0.33822478012850216,-0.2230459476468323,-0.16733342760440773,3
5.275,2.325,2.525,3.35,15.9,35.25,6.55,6.8,375.0,139.0,139.0,199.0,1080.0,2411.0,408.0,423.0,16.0,16.0,14.0,14.0,21.0,22.0,14.0,21.0,-0.3319823654066012,0.1962270761720443,-0.3979648859952814,-0.2914910618816299,-0.35439559688252426,-0.09334955213078447,0.07232407154657967,-0.0090086196285628,-0.11117652886859852,-0.36210935175973497,-0.11913429025192514,-0.4008590983754732,-0.16506553326203002,-0.11705975145762273,-0.12769482528664386,-0.30119833361696324,-0.38485873548064686,-0.07484982299557516,-0.170262197473124,-0.3037461751858836,-0.496817980452898,-0.2790451331531597,-0.042362045487974814,-0.06054307907781967,-0.31278597164632277,-0.3198235397008021,-0.11974317933566686,-0.31385521389443966,-0.22403921671505558,0.15723900929009452,-0.22683176296875532,-0.29014498918487697,3
3.625,1.65,2.0,3.175,14.95,29.475,6.05,5.875,211.0,96.0,110.0,193.0,1059.0,1890.0,359.0,377.0,13.0,13.0,9.0,14.0,18.0,15.0,13.0,18.0,-0.14870179815677603,-0.019695002688311588,-0.24866370614633196,-0.0346795503619715,-0.18341585962333945,-0.2347785793365121,-0.29837652293744193,-0.18502578525709026,-0.07929902201585025,-0.06849905052346336,-0.2195650181547472,-0.1434576584456351,-0.12894490871174497,-0.2710649393778471,-0.09681999505527374,-0.16622462088005874,-0.5777967582589706,-0.35310466503733356,-0.1877384194094081,-0.2008269980517562,-0.32378610694809046,-0.05567749687901216,-0.1504996050881805,-0.04523256626854573,-0.3542759325304724,-0.2694759212818739,-0.32592544429198633,-0.4199586828213316,-0.4323065442157524,-0.4722360800283861,-0.2587407350329099,-0.348623279580558,3
5.475,2.2,2.775,3.725,14.175,29.475,6.25,7.975,339.0,128.0,166.0,227.0,951.0,1881.0,384.0,462.0,14.0,11.0,13.0,12.0,17.0,20.0,19.0,18.0,-0.35090666586686164,-0.1686492253640818,0.04072082336480493,-0.2359241505718215,-0.3314394721359412,-0.1530112998675557,0.1338864459020874,-0.07891476614767864,-0.20925402453807765,-0.1801088839947867,0.11715915482860849,-0.14813515126810803,-0.3792249560025998,-0.5063974244954557,-0.15543873150279192,-0.07338116480937001,-0.4075596689352486,-0.05443633596658632,0.2256218219928788,0.21495963046825373,-0.48225799446791795,-0.25647415664251966,-0.19022209498446566,-0.06365360056642352,-0.3563121374212944,-0.47453673653068484,-0.03747649261894401,-0.3164837878913647,-0.3176148031970074,-0.40838661877339355,-0.05622537134295652,-0.1939366290895291,3
5.625,2.75,3.525,3.875,15.05,22.175,7.725,7.75,326.0,160.0,237.0,265.0,1031.0,1351.0,508.0,455.0,15.0,16.0,16.0,20.0,21.0,17.0,20.0,20.0,-0.10627617274594386,-0.004544640164031118,0.011055285811433046,-0.3546944578497169,-0.4837989690745906,-0.20914213374311122,-0.32025012972461797,-0.4132470835251109,-0.47559605967140123,-0.027414925637286206,-0.04911915136344316,-0.1822494261755588,-0.6091994360365263,-0.14510664091929626,0.19763377642463603,0.0104329620160957,-0.631424403266832,-0.44825373348708475,-0.29446129218548855,-0.34413061589793364,-0.3883403095114051,-0.09541611658676204,-0.07926685939242667,-0.18508256693212335,-0.5716088726601352,-0.01369261831290154,-0.12841276018605294,-0.3288242808908647,-0.3557809151536874,-0.141323747941353,-0.13389255309003795,-0.2459224998760164,3
4.325,2.65,3.2,4.175,17.875,27.85,6.85,8.95,258.0,160.0,183.0,254.0,1196.0,1793.0,448.0,614.0,15.0,14.0,10.0,13.0,19.0,19.0,19.0,19.0,-0.38335171998198597,-0.30615523252095694,-0.07693246386617397,-0.178257169384726,-0.6461764205294028,-0.5749555577998131,-0.34553840177129186,-0.271455943766633,-0.5981852550070288,-0.670824365837359,-0.5148280092369434,-0.5820495280880116,-0.2899129998851767,-0.258650212170242,-0.10872084719677118,-0.34355011129270785,-0.637953132292959,-0.24818777143207435,-0.0481532138347766,-0.18424293122044436,-0.5198813600237783,-0.34367107601255,-0.19734626695694604,-0.20543314669547347,-0.6567401304965204,-0.22432223999563708,-0.2611038093446348,-0.25711730209258454,-0.462410726681013,-0.2033639754028652,-0.19123020295007664,-0.292442739058875,3
4.525,2.05,2.85,4.475,13.05,31.725,6.375,4.875,252.0,115.0,172.0,261.0,833.0,1831.0,402.0,273.0,13.0,12.0,16.0,16.0,19.0,14.0,16.0,12.0,-0.1730012984376035,-0.07496418722786849,-0.2739548148635753,0.03138273272121859,-0.029482517855327517,-0.5590038437574698,-0.1507799583047764,-0.35501317543025046,-0.38878455087478275,-0.647088026793067,-0.432263945009107,-0.2580604299793441,-0.04276319829946614,-0.4978405550758909,-0.06033971350008883,-0.3562412108748141,-0.3820407857560216,-0.18889536979108212,0.04476814157052605,-0.05366691562847596,-0.17906709410683264,-0.3992389913205735,0.010570877342214584,-0.11721360604300446,-0.16732672505493631,-0.5416424670293521,-0.14677891823034306,-0.5198094668348063,-0.22776535196052794,-0.2106622755664058,-0.18005100867024104,-0.38435721912966553,3
5.2,3.15,3.8,5.15,9.725,25.85,7.6,5.975,334.0,163.0,216.0,309.0,570.0,1590.0,423.0,310.0,17.0,8.0,12.0,17.0,13.0,21.0,11.0,13.0,-0.35838911359558234,-0.11518117440548802,-0.19012567882476217,-0.05624038793726001,0.08597820207016273,-0.5058983253454643,-0.17483350959949032,-0.22582960871802119,-0.33416835864231537,-0.5695554845005139,-0.3929079158593455,-0.3817169203162395,-0.3857626591814725,-0.5643699000757506,-0.4335406228343703,-0.2878694443119386,-0.39850176086219674,-0.529482291833171,-0.2291237102414489,-0.28482963255233723,-0.5715192589199597,-0.6128388763148322,-0.494194673287038,-0.39998091504772043,-0.1739808259938327,-0.4328636191469516,-0.238705989256509,-0.2830808017664613,0.05743086846745714,-0.24411345306259832,-0.059499310968847384,-0.27498155358348286,3
4.1,2.55,3.0,3.675,20.35,30.225,6.7,4.25,253.0,152.0,169.0,212.0,1419.0,2061.0,437.0,261.0,16.0,16.0,16.0,12.0,24.0,22.0,16.0,16.0,-0.09513531985219216,-0.14517553275810163,-0.05246828746559482,0.15004883572446537,-0.3389426795902854,-0.3053492463024974,-0.2589605603498985,-0.46897972524137665,-0.3326853939373468,-0.4351330543661486,-0.3024060727042161,-0.4276201166812633,-0.1678131245731064,-0.3506916621155326,-0.18986906090374633,-0.43900899407272986,-0.553981470707986,-0.24811830709535754,-0.08714302302497409,-0.10638197700234768,-0.6907162202336178,-0.505906714839242,-0.21776222900972197,-0.20111905361286628,-0.520792452416093,-0.25884769240392647,-0.2987855918204653,-0.4411760943602119,-0.16355701995354036,-0.059023412448278904,0.020322651851065507,-0.5004502216575077,3
5.7,2.8,3.15,3.675,18.75,25.425,7.525,6.5,338.0,160.0,188.0,213.0,1288.0,1595.0,449.0,381.0,17.0,11.0,13.0,15.0,19.0,16.0,17.0,16.0,-0.0746260914616545,-0.23776816860148167,-0.00550041021422038,-0.12462930374534664,-0.23610229067387864,-0.021130290279459896,-0.06954500390052705,-0.4377740550279014,-0.4060766406042535,-0.24348386052006796,-0.33743568670803425,-0.415010065224822,-0.32980073972480384,-0.32594790781706356,-0.2778322571062966,-0.48547618094512024,-0.5967780672403854,-0.1689499569622981,-0.04304719682116065,-0.09454642361927607,-0.5163658853624162,-0.5681314524255939,-0.34773700835401467,-0.21497179716222098,-0.3494724791719192,-0.2989891384389136,-0.17685408211561252,-0.19405664881878357,-0.06360694183410745,-0.3715753376356974,-0.12058855113632451,-0.22254927062014557,3
4.3,1.925,2.675,3.25,13.375,24.275,6.65,4.15,255.0,119.0,180.0,198.0,928.0,1499.0,404.0,270.0,19.0,15.0,17.0,15.0,17.0,19.0,21.0,18.0,-0.28509812966564396,-0.26357337399497044,-0.10944549991252117,0.10320316927954008,-0.10406749195228156,-0.3739382903115181,-0.12824560639450167,-0.3237507974153106,-0.22349608327152265,-0.16238608490125667,-0.1921151814951277,-0.24841789977337778,-0.34596712484314435,-0.28954772954377417,-0.3436077304811217,-0.41316209325697006,-0.7922786638760326,-0.26910589815466973,-0.31130122564126833,-0.2883557543242541,-0.5463403405195495,-0.578175450180072,-0.5453097766133261,-0.3223920775487463,-0.3898983132585808,-0.4684302080355326,-0.3398891153391526,-0.3868570802643309,-0.21926715363390217,0.0246797312646806,-0.1358758811273771,-0.15212233660826843,3
3.7,2.4,2.9,3.525,12.625,24.275,4.875,4.075,224.0,131.0,150.0,187.0,829.0,1500.0,297.0,257.0,15.0,13.0,11.0,11.0,19.0,17.0,15.0,18.0,-0.378935743888862,-0.26493876710546116,-0.0110593680010412,-0.13558414146954978,-0.2921826862983932,-0.4493563450360486,-0.4875471245883091,-0.06769735541473189,-0.0998382565388569,-0.38110245487829225,-0.19056015574442578,-0.19237252908328112,-0.3005948450788952,-0.4018086517074695,-0.4354300388666054,-0.44987171836604245,-0.3894390344317539,-0.4501127006874342,-0.065081600790953,-0.25475801808268855,-0.21750614518357442,-0.19656858987568107,-0.03325600684396678,-0.49461995652892765,-0.3143250396675891,-0.5218513308172347,-0.2758979617843846,-0.49291707714585525,-0.4275180496595754,-0.0834080287926931,-0.04301330292236518,0.018715346941554818,3
4.55,2.475,2.925,3.925,12.825,23.225,4.65,3.925,273.0,121.0,130.0,194.0,782.0,1466.0,273.0,221.0,12.0,10.0,10.0,10.0,16.0,20.0,10.0,17.0,-0.013927474799508779,-0.007991082476937314,-0.1470440090623219,-0.2465326419005833,-0.10468615905773147,-0.3035198545175951,-0.4878339052383058,-0.0653820166422922,-0.05043165895981766,-0.5279677412907535,-0.29617861717389976,-0.36566349987762026,-0.008158917781620529,-0.4685292543975311,-0.1306031830684528,-0.5189093882140028,-0.40379538210168187,-0.2720574903324032,-0.30039364926553513,-0.34726389192488816,-0.5189616460272888,-0.18786370113740025,-0.29944081487515806,-0.4236912574597569,-0.2398511548587015,-0.20943326590731626,-0.39705650063452913,-0.3181268848684044,-0.12662030012458428,-0.35195661395294436,-0.04471594565970488,-0.41992470597340187,3
3.75,2.475,3.475,3.65,14.65,25.15,5.75,5.625,219.0,157.0,179.0,168.0,905.0,1514.0,317.0,294.0,17.0,17.0,13.0,9.0,15.0,18.0,15.0,14.0,-0.17509457639525833,-0.3647030541740839,-0.09989465616207387,-0.0648155786742608,-0.36818609377437317,-0.40940381365211187,-0.4131903798893799,-0.2558383953605414,-0.21027478845909117,-0.4004555929351905,-0.24062040724449565,-0.23292059435908202,0.044956045184953365,-0.34906912097848314,-0.2321676956316265,-0.2526760731984913,-0.6210962035611833,-0.6450963435529593,-0.5839119379656559,-0.668656119706725,-0.3777629521402132,-0.11682620363032027,-0.16615273979418316,-0.319409314400618,-0.17952143883765329,-0.2750785861047141,-0.14876995455983757,-0.37037910673327934,-0.22960687819488534,-0.3238855211767318,-0.1600095054727906,-0.4102835783220568,3
4.4,2.125,2.55,4.3,14.075,22.075,5.375,7.25,251.0,112.0,116.0,200.0,956.0,1488.0,310.0,399.0,15.0,9.0,10.0,16.0,23.0,20.0,14.0,17.0,-0.418152716729317,-0.3006156405253506,-0.09683965962584887,-0.1420217926442506,-0.11589785293687682,-0.3094576899712275,-0.10857189001597362,-0.2740920544641315,0.28755151663178674,-0.5265989064631821,0.06273614901989738,-0.33317886137086244,0.015072301914631893,-0.6294716683052117,-0.18564555252755713,-0.3551199207697757,-0.7610130562675137,-0.5425405292337515,-0.2063947877482683,-0.13716149284287235,-0.4971609365554922,-0.17006216246284356,-0.04145621167428668,-0.19147730354955536,-0.014639580696866168,-0.19492816413982358,-0.11834728817380519,-0.2752360416271969,-0.22732598944857133,-0.16591965677712472,-0.22210097032435214,-0.3397399870961495,3
4.825,2.075,2.8,4.675,13.35,30.875,5.925,4.95,331.0,122.0,154.0,262.0,823.0,1789.0,372.0,285.0,16.0,12.0,16.0,17.0,16.0,16.0,16.0,18.0,-0.58841689388681,-0.39351551581135347,-0.38003239167341335,-0.36950700479071236,-0.038562872404972,-0.08775519949606582,-0.26012541955618484,0.010989566303332199,-0.18128343129348945,-0.33249243971245246,-0.4629259854128425,-0.12536641777475302,-0.3106521919512159,-0.48139577464486694,-0.2330232800143558,-0.3020847976261635,-0.6324958814277521,-0.2487166207045085,-0.26811314894581917,-0.17593210100522044,-0.41616300333747724,-0.354073276630508,-0.3504408908179177,-0.1897365885562847,-0.14295940262616694,-0.45732133233529515,-0.1379391181842548,-0.16582853373800702,-0.28978085786889873,-0.39681764550461335,-0.2618233756832833,-0.34489826756584924,3
4.975,2.525,3.25,3.475,16.625,29.675,6.4,7.125,321.0,165.0,194.0,228.0,1113.0,1792.0,417.0,465.0,16.0,16.0,17.0,16.0,20.0,17.0,17.0,18.0,-0.4334638865328177,-0.25766143440050226,-0.10254192334439072,-0.2165913104090801,-0.3712202051262149,0.12602396495785909,-0.024021891226510408,-0.19634308469122522,-0.5384773665895113,-0.3123106060367674,-0.4316354860967919,-0.2714415936771299,-0.31186282150854117,-0.3069267812663495,0.039261734148843784,-0.06505978731916687,-0.8763785903185717,-0.5756363946116952,-0.08203941424575907,-0.024310756462972084,-0.4458221804167226,-0.37599187947689183,-0.09578218211121846,-0.22423602289434233,-0.4672271779431368,-0.4169037593432572,-0.3043115605281154,-0.4566166127630373,-0.7848757026531699,-0.567398330965542,-0.5726355649647267,-0.339867974229845,3
3.375,2.1,2.75,3.4,18.4,26.925,6.15,5.75,198.0,138.0,174.0,230.0,1242.0,1848.0,423.0,358.0,21.0,17.0,17.0,16.0,17.0,20.0,15.0,17.0,-0.11553585783982287,-0.10754346383122068,-0.09435287435350168,0.011975160585811355,-0.4065316371117089,0.0718108310728931,0.004710196057591931,-0.18635967965588926,-0.615811210514988,-0.14757929562833894,-0.10008469514226047,-0.2024456006957299,-0.6535731681937281,-0.2731147459294519,-0.11007988950955216,-0.34427837607784917,-0.9187147749832227,-0.7831188647738406,-0.4747431730240143,-0.3376447860064292,-0.6430799144513566,-0.34129416769310505,-0.02011832418329399,-0.23106763725107418,-0.6715875225210349,-0.38791332998750483,-0.1341788434119473,-0.29645617317135653,-0.5329671727699724,-0.32464777026907565,-0.31614257402071494,-0.25536074454668334,3
4.475,2.425,2.8,3.4,13.0,17.1,6.1,6.8,237.0,130.0,152.0,199.0,872.0,1159.0,335.0,408.0,17.0,12.0,12.0,13.0,20.0,18.0,16.0,19.0,-0.2462958949070925,-0.2780540972666749,-0.02109626060002685,0.05662931474632214,-0.3750157392019837,-0.26178615193896976,-0.40268646115645546,-0.554466905845246,-0.3243152972613839,-0.2747532359288565,-0.32460976205265196,-0.6217019059970708,-0.27201227449855375,-0.30786591902290095,-0.14809478443705512,-0.5151528137870366,-0.6459085395970126,-0.5975938757005957,-0.19080436646335983,0.10814680566104597,-0.5249080418544204,-0.29327611462848346,-0.34869433659668947,-0.16072358829808278,-0.2097958226996207,-0.35201088275953446,-0.24402193419776871,-0.5525592877770222,-0.33641567974809744,-0.35899941561199583,-0.2651675361629417,-0.3211564115677159,3
4.45,2.175,2.875,3.6,13.85,22.05,6.725,7.1,300.0,125.0,162.0,207.0,954.0,1342.0,411.0,460.0,15.0,11.0,13.0,17.0,21.0,19.0,13.0,18.0,-0.45712197613756683,-0.4482465337825847,-0.0637949669767943,-0.09785382365260152,-0.2686467549427581,-0.06851729437733954,-0.11997350755588441,-0.2867110551996114,-0.3429731545880127,-0.2714526016173526,-0.3075556351461269,-0.2350988185791052,-0.4453633866232327,-0.42099882442219744,-0.439476453688091,-0.33912161185587136,-0.9780056912346062,-0.8254731236923746,-0.3535840274440742,-0.05412467599239841,-0.6281660671534087,-0.44326996281889763,-0.2078834706118792,-0.19367548481604024,-0.6112379228844081,-0.39470199690131563,-0.6078708601015018,-0.5800206876723102,-0.5547524653115845,-0.37932373580403195,-0.3044115014468473,-0.05802723670461022,3
4.1,2.5,3.075,3.475,14.2,25.4,6.875,4.875,272.0,173.0,199.0,228.0,984.0,1559.0,447.0,305.0,16.0,13.0,16.0,15.0,18.0,16.0,17.0,16.0,-0.25651766764696404,-0.05327317313637142,-0.08697451065279853,0.011072815544221369,-0.36923363293350575,-0.0764277102892542,-0.4183345562048165,-0.26384969975405254,-0.38876404121219493,0.04354900535445778,-0.18738721509383713,-0.19567208535417668,-0.387243194865844,-0.27737396439217965,-0.07588845241496844,-0.1957326183366767,-0.7192229512777968,-0.4135850315419092,-0.24581735426751414,-0.13248989596080998,-0.4407842550749439,-0.1813360603564274,-0.14082090109361745,-0.14917161793670344,-0.5017684572359031,-0.21164920898453604,-0.44913292428097623,-0.09726538398958617,-0.25321652863605326,-0.11631433788126438,-0.10133826248469108,-0.13200096005716155,3
5.35,2.425,2.45,3.425,11.9,20.025,6.2,7.725,335.0,137.0,133.0,195.0,753.0,1198.0,406.0,480.0,18.0,15.0,14.0,15.0,15.0,19.0,21.0,21.0,-0.4200618924720429,-0.5188712478593951,-0.24124399833906154,-0.2836592099368689,-0.31850399448379707,-0.12245239135620659,-0.3051538385094688,-0.2714886104755609,-0.17382776043480969,-0.15332651418685628,-0.13096888441151883,-0.31724336939901093,-0.27514045879080884,-0.1939261171936724,-0.3428733473934169,-0.33239133954152184,-0.6142671000974044,-0.46074106986961433,-0.3203720039874473,-0.23303103347537074,-0.5237354875690605,-0.5893032581176612,-0.5125773164316093,-0.34418966580957705,-0.5178522068782851,-0.30073839247662476,-0.1702667617574489,-0.11738124596064048,-0.42959822596743935,-0.23821854624936417,-0.028941213637670247,-0.25667488405705297,3
3.2,2.075,2.425,2.6,15.95,19.85,5.225,6.3,180.0,109.0,116.0,161.0,1078.0,1214.0,308.0,361.0,9.0,14.0,14.0,13.0,21.0,15.0,13.0,14.0,-0.026807476165464292,-0.13837624646449154,-0.3289052591944642,-0.057423081541945385,-6.145707774693526e-06,-0.20404778461681475,-0.26528696519294787,-0.04458829484586736,-0.03809596932525591,-0.24138504723883944,-0.1360448544418321,-0.05545425161101173,-0.3384799881983115,-0.24352404207458234,-0.3094984847159425,-0.2763006366418759,-0.8826344210372156,-0.6693878352108094,-0.6369551328127173,-0.29466743849837584,-0.6356253615823481,-0.5912487069892816,-0.5762975642303244,-0.3094426063753754,-0.3623947949846602,-0.3508475935854071,-0.3021992854314079,-0.2240273099088512,-0.15525004355489408,-0.324829615873247,-0.13471170379300576,-0.2849659054480694,3
3.85,2.575,2.65,3.1,13.925,18.675,5.025,5.35,248.0,136.0,144.0,182.0,883.0,1075.0,304.0,358.0,17.0,11.0,13.0,13.0,21.0,19.0,16.0,23.0,-0.2972738808217805,-0.2864739645235451,-0.16841870113758373,-0.3451193785565826,-0.1815711252343508,-0.1828991789803152,0.0196038616319982,-0.19582439644826663,-0.03164238675013201,-0.20846871280606669,-0.02351558776018355,-0.34390736060889054,-0.11857337802277704,-0.2572714386866303,-0.18525057857827226,-0.2292410854897083,-0.42480371896367897,-0.3933445422523383,-0.24018855968210312,-0.131930522414746,-0.04237830897356686,0.007035452931100666,-0.11749282038370104,0.09042133465959648,-0.362453818732934,-0.5642930146241704,-0.29934412130267585,-0.38600171666596855,-0.45948876888938855,-0.25379972152423924,-0.39486743133908986,-0.5209243821533115,3
6.05,2.8,2.6,3.65,12.175,21.075,5.725,8.05,377.0,141.0,141.0,183.0,738.0,1292.0,328.0,513.0,19.0,13.0,11.0,16.0,15.0,18.0,13.0,15.0,-0.4112414711082245,-0.05632022827630102,-0.196721965507106,-0.16346279588210907,-0.11626048237883335,-0.25214864151258665,-0.1287984473523717,-0.16056357774099694,0.0011119499015280435,-0.09369674613518385,-0.13947199401917218,-0.3436780967345086,-0.12302880300727788,-0.43088366695462704,-0.19686984148469702,-0.42537593995008066,-0.3060495239692466,-0.4834391381972546,-0.16330736280080574,-0.014194707522394502,-0.16714553503006552,-0.21995587394289742,-0.1550610598424112,-0.2137587280017675,-0.09744507657863295,-0.238342710849776,0.030599519324080334,-0.30564690267708355,-0.23845745489830128,-0.173025652970021,-0.2634634780293299,-0.3564792652999202,3
4.775,2.0,2.55,3.525,12.475,20.825,4.575,5.925,296.0,111.0,142.0,191.0,754.0,1260.0,287.0,382.0,18.0,12.0,12.0,14.0,20.0,19.0,16.0,20.0,-0.06054581033769739,-0.22137196786717647,0.17421044657848833,-0.3092755270766735,-0.4119073016071147,-0.02831928550936787,-0.14711493351619553,-0.3385614515521615,-0.20149241132869686,-0.17213720635396088,-0.31826494507920666,-0.3608515764752268,-0.32270828305759564,-0.41612894118673194,-0.40579951035239903,-0.4451731176610353,-0.4589190684437519,-0.4723020734999299,-0.18218345780299253,-0.1044481553845086,-0.17366514677100633,-0.3711809947653153,-0.05912814773280512,-0.2166851301070726,-0.39350823167719834,-0.21102404733189245,-0.08942931957257902,-0.14902787859653505,-0.32953542143891434,-0.20916603598906822,-0.20794828072269558,-0.26170420785359283,3
4.025,1.875,2.375,3.65,14.275,28.4,5.3,6.125,232.0,107.0,147.0,244.0,864.0,1791.0,358.0,392.0,16.0,16.0,14.0,18.0,17.0,15.0,17.0,20.0,-0.30153677756651026,-0.22085585555868592,-0.2105443756689693,-0.15720543089858488,-0.26072941831323404,0.045678443939089416,0.07771358105561921,-0.4060107661121393,-0.31199748827847523,-0.26580841183156784,-0.372620197412967,-0.35596083599877876,-0.6385052476190264,-0.42798153755688073,-0.3649418810042186,-0.42664359559753434,-0.5583440614786626,-0.3974847614611696,-0.4220105232638385,-0.3778633386906199,-0.5656037479150735,-0.29820209776561385,-0.5624661197779214,-0.4327776136463704,-0.4973931236242923,-0.32519929153156146,-0.3340147639360201,-0.42420041358079097,-0.42430019419735426,-0.08714316570967905,-0.1625892407298549,-0.039205595517254214,3
5.575,2.05,2.0,3.05,14.6,22.825,4.225,7.75,357.0,121.0,117.0,192.0,959.0,1451.0,255.0,536.0,17.0,16.0,12.0,16.0,21.0,21.0,11.0,18.0,-0.43837313383091836,-0.4212171351472222,-0.31420166027361124,-0.3864673393392307,-0.22915528125821658,-0.01097736090531364,-0.09764332621723844,0.050549917594728364,-0.16060018457220068,0.06893469453947101,-0.10203317255764714,0.03272821870570237,-0.2698850548274771,-0.3602195093777112,-0.05091942677593028,-0.3592921151320625,-0.4800728998257293,-0.17814278846673642,-0.22383517770833017,-0.5519162163420694,-0.3287770017360977,0.04773898440061504,-0.09324643981632012,-0.32365924807446017,-0.26020264671524757,-0.22396412931600101,-0.20221295749229828,-0.29745265867182,-0.4366994732114778,-0.08609166294959755,-0.06592692846419346,-0.18641043928881199,3
3.6,2.575,2.35,2.725,13.575,16.7,5.5,6.275,234.0,151.0,131.0,170.0,930.0,1053.0,331.0,377.0,17.0,15.0,14.0,16.0,19.0,14.0,18.0,16.0,-0.32368938907494327,-0.1591467969236603,-0.1423664617503614,-0.5784029757605321,-0.312487679877,-0.31709028956659546,-0.26859449255169704,-0.5449941444150538,-0.16696932829922623,-0.2477827367570358,-0.1556707912143232,-0.620624651640001,-0.5607341136693987,-0.4984970217907374,-0.22840245035983991,-0.25953794135395714,-0.5305774763669414,-0.15415993846474413,-0.09975586102191823,-0.3476869430818712,-0.35441167904228604,0.029946375060744105,0.24980434514024466,-0.08821560691602048,-0.47553480268565546,-0.2669589186899713,-0.5036686620613873,-0.4513083020539846,-0.23242159536696966,-0.6250086556655281,-0.271304354180921,-0.6200327948582619,3
4.975,1.85,2.875,3.475,18.275,25.525,5.7,6.325,320.0,100.0,161.0,213.0,1263.0,1747.0,351.0,395.0,17.0,10.0,13.0,16.0,20.0,21.0,13.0,17.0,-0.679290679370305,-0.543410883541667,-0.5465164469355812,-0.3084872441672817,-0.26086464252571623,-0.2572950063949467,-0.26215840134905494,-0.1775964056929489,-0.29237162558709645,-0.3381792491708331,-0.15652041597331295,-0.2859190951636075,-0.38081292419600554,-0.09816175064251585,-0.2845605717261203,-0.33015944873780934,-0.6924569574089247,-0.31471340214686233,-0.07329530225109826,-0.21557870498712986,-0.421942377479087,0.06399069355923273,0.09325669685588636,-0.32787107236658425,-0.4366621415998099,-0.2163850546998879,-0.3385744271801539,-0.40403846916629604,-0.38326616147835063,-0.11615107419472913,-0.0015160493333851706,-0.1758822901265843,3
5.75,2.525,2.75,3.4,17.675,21.675,5.35,8.55,416.0,163.0,160.0,205.0,1162.0,1367.0,321.0,526.0,19.0,16.0,17.0,17.0,23.0,17.0,16.0,15.0,-0.6406909611231743,-0.26468274912976597,-0.3613355914822896,-0.3581917782537105,-0.5242947006892839,-0.12023173838626146,-0.12999906392840516,-0.2089347831156562,-0.4648487192235446,-0.5722578560244739,-0.3629169179057296,-0.3016427602634612,-0.42435037760908634,-0.23200028611691112,-0.4821362345268484,-0.16398786522383543,-0.6790646509953572,-0.3046130035652215,-0.054046471962584185,-0.12545637556005293,-0.3939058191398107,-0.06568546687385031,-0.1944997555806335,-0.17164616945738925,-0.46281845599620686,-0.36122743889219616,-0.21983881282515597,-0.17653736742640855,-0.11718681994895383,-0.10440039943953672,-0.020038030846865167,-0.22363514422368377,3
3.975,2.35,2.65,3.05,22.1,21.45,4.975,5.625,278.0,142.0,169.0,210.0,1592.0,1391.0,330.0,324.0,20.0,15.0,18.0,22.0,23.0,15.0,17.0,14.0,-0.5155233631151613,-0.15615844438360538,-0.34256268384188837,-0.26462247827544827,-0.45971315589579675,-0.29081041996544604,-0.12462497686816387,-0.29473236152980337,-0.3815987960833749,-0.04987046073726648,0.14857707796739295,-0.21226680840563064,-0.5059134480941501,0.12101504975341418,0.16221455547631478,-0.20567283297751135,-0.9030113179699827,-0.6858730627479407,-0.5550474392210616,-0.5552358558120349,-0.23657160377341074,-0.1753506686564758,-0.14197376210321583,-0.3177155201296021,-0.5210366675400128,-0.33292228998187057,-0.26046513713012903,-0.15821534426970021,-0.3967634507019582,-0.3239977702683724,-0.6675439900974379,-0.16292693576740838,3
5.325,2.225,2.9,3.5,17.45,24.075,5.55,8.9,347.0,119.0,160.0,197.0,1129.0,1523.0,339.0,540.0,15.0,9.0,11.0,12.0,14.0,14.0,13.0,18.0,-0.20919742852904796,-0.3497080383255214,-0.07423988916610974,-0.0958537988900203,-0.3057749068758475,-0.01320389022220461,-0.34657516229086627,-0.3798543122419451,-0.3312953076863699,-0.04843817297998917,-0.10958104034938895,-0.2382797771496825,-0.33187607860256196,-0.10148792361771256,-0.11237848487149184,-0.1838234944508027,-0.5129537553921136,-0.31351127162039166,-0.25483248781549867,-0.5278765447596399,-0.2316314727407122,-0.2510450632447607,0.10335096396511739,-0.24303613986137612,-0.2910904703745297,-0.40080805096594946,-0.11252400239291999,-0.10751429690308661,-0.276925803887399,-0.5571282322396083,-0.15030431241776585,-0.44953763894466475,3
3.675,2.4,3.15,3.2,16.15,25.8,6.3,7.525,225.0,140.0,190.0,214.0,1103.0,1667.0,391.0,500.0,16.0,14.0,18.0,18.0,17.0,17.0,18.0,20.0,-0.1649247510017143,-0.33734049427515983,-0.04520073380035768,-0.21995897994567187,-0.38451730795402617,-0.16226540148425367,-0.15982698052652874,0.0074007079582523155,-0.5686016234803309,-0.3390990536429045,-0.3155426336096655,-0.054335811694515054,-0.5355401347714466,-0.2820584221696151,-0.30219648158186074,-0.11978881482330203,-0.5536860114106501,-0.5811102304244944,-0.13765800707402745,-0.3742991771323653,-0.5817292593398239,-0.5020899128139695,-0.2858540272601853,-0.31781090551704094,-0.5399991576271268,-0.322908529630179,-0.03517292720472949,-0.15543588634696806,-0.5429436578286407,-0.3382649303489529,-0.0002965591079786782,-0.1400369471480786,3
4.175,2.75,3.275,3.4,15.4,22.75,7.4,8.15,231.0,145.0,192.0,201.0,994.0,1536.0,467.0,581.0,11.0,13.0,11.0,10.0,17.0,19.0,19.0,20.0,-0.1451239471831328,-0.13276280657673503,0.06009555469355287,-0.24378863663466585,-0.20530615956183398,-0.40969051958223035,-0.14506483654484797,-0.26522981548699565,-0.40958844819667883,-0.40894471012156286,-0.3221000702809624,-0.26245664348137854,-0.3889516887913515,-0.36332928087966837,-0.4397646624715353,-0.22521793916325972,-0.3951779651843699,-0.3284925702437105,-0.2090706140379938,-0.26302061058441445,-0.35770395360366486,-0.26512487136261925,0.024246708875718243,-0.10261733675154226,-0.44332045162332373,-0.34224376294090664,-0.10556944576959866,-0.18379729988703666,-0.4169257492555403,-0.19399438400681643,-0.03577847351777551,-0.3337399926830306,3
3.375,2.4,3.025,3.65,14.225,22.05,6.675,7.775,203.0,157.0,193.0,224.0,907.0,1446.0,392.0,523.0,15.0,17.0,15.0,16.0,17.0,19.0,15.0,19.0,-0.26503875886556016,-0.22281626972165236,-0.0787556341585052,-0.0857821490177596,-0.31064939726022217,-0.28962321264045965,-0.1442335190261254,-0.3020229382219636,-0.3497552378889946,-0.2925376083400526,-0.23407006758882137,-0.3232850846755756,-0.4901850154157793,-0.4369536451229746,-0.35966621614549893,-0.30192119305759235,-0.1440535909913395,-0.41141804113792707,0.03800496207103271,-0.5020303306748336,-0.39896708333556996,-0.30794652681655543,-0.2117728430292659,-0.5347058969022959,-0.42710971613956306,-0.3700069420198022,-0.4768573193303331,-0.3604971424188488,-0.4400641020839573,-0.1976627745923513,-0.22320185819223967,-0.36589971198705745,3
4.775,2.75,2.825,2.55,10.625,17.275,5.575,9.275,298.0,183.0,164.0,146.0,681.0,968.0,311.0,562.0,17.0,17.0,15.0,15.0,21.0,15.0,15.0,15.0,-0.5256535768503516,-0.4449260727647911,-0.4450957432590713,-0.33384767916664276,-0.2978480316096525,-0.28129932907202776,-0.18694336199486705,-0.396392623731426,-0.06912817893598747,-0.23949822521953712,-0.13361364276818596,-0.559185492837144,-0.047158381788480176,-0.21113286246549742,-0.13383336033606164,-0.314057489154486,-0.2927060847251278,-0.02201572101929591,-0.0489794500174941,-0.05549644326093625,0.07075281177434278,0.03133723348867775,-0.16102363114656626,0.1992356369479584,-0.0748819699375906,-0.33806241774333684,-0.1447359771606438,-0.28424297366798545,-0.29416909101745276,-0.3551828911008884,-0.2357896482906646,-0.5398340560288978,3
3.45,2.275,2.4,2.75,12.9,20.125,6.125,7.525,216.0,123.0,125.0,147.0,835.0,1191.0,355.0,447.0,15.0,9.0,11.0,11.0,22.0,16.0,17.0,16.0,-0.16388166937270138,-0.013298064274918104,0.059242944273261884,-0.05165544742294407,-0.08906068803652452,-0.16685257671670106,0.05666026006718033,-0.3638364170334639,0.01654167066674936,-0.2739036888875954,0.12851478636171632,-0.30560002023574345,0.04845997416549861,-0.12246270921507016,-0.054469947143926736,-0.1818046221848653,-0.4195095869602903,-0.14424289733332898,-0.19480860029205257,0.016626882590182496,0.0071532723648327,0.22166205604946992,-0.2519081881825822,-0.04990417322581717,-0.3061728090097452,-0.11845321402477872,-0.22568341499198766,-0.21399168275467859,-0.378585081159218,-0.4792460479345872,-0.22192723317263333,-0.3497438186769178,3
3.975,2.25,2.975,3.575,18.025,25.225,6.325,6.75,222.0,120.0,155.0,213.0,1272.0,1709.0,365.0,392.0,17.0,13.0,11.0,11.0,17.0,17.0,17.0,16.0,-0.28074154918926303,-0.36552701962042183,-0.3306084402518185,-0.24167098886214083,0.14660404216646608,-0.4625848331603545,-0.0535065387570994,-0.3153235525526004,0.09595690431139213,-0.34659050941765435,-0.042516673852142486,-0.34390977609536033,-0.07633384965484188,-0.3665313820108487,-0.05082094041949302,-0.28283091803197397,-0.6107350425998403,-0.764437490313464,-0.3271844153245197,-0.16384682107889692,-0.31510987126322787,-0.33199517924114524,-0.07088949609878857,-0.18517078075073934,-0.16976481612862043,-0.125885636023235,-0.1511055811613164,-0.5185316123639209,-0.21494170023968567,0.12321825873917037,-0.23965954784287327,-0.21614516714309656,3
4.125,2.35,2.55,2.7,11.925,21.775,6.15,7.975,263.0,115.0,136.0,152.0,802.0,1386.0,374.0,494.0,14.0,13.0,13.0,11.0,20.0,18.0,17.0,18.0,-0.24073842968148348,-0.2829960725686887,0.08814860181132798,-0.022134144780879453,0.0010393452453089978,-0.2033940651725517,0.047115483395992044,-0.4167146538386606,0.16299110822454754,-0.4317402596752355,0.21542489800838213,-0.3920957151107384,0.08635571472722527,-0.30029806479835436,0.3374467440252791,-0.21289481280320935,-0.3833381919719791,-0.16092531891006417,-0.17595156217061855,-0.14278347763625748,-0.2901888307682381,-0.3093557088238938,-0.0790395522350394,0.035226361881995294,-0.19378004747562447,-0.0595507672747414,0.09677408781960774,-0.09356336410549268,-0.4341778705894366,0.015321046233162395,-0.23018223053243214,-0.38902834791812063,3
4.175,1.975,2.325,2.4,12.9,21.825,4.6,5.475,264.0,102.0,114.0,126.0,881.0,1327.0,297.0,337.0,17.0,12.0,10.0,10.0,21.0,18.0,18.0,16.0,-0.4442573584282997,-0.37579522520211356,-0.43241539253126576,-0.27594944488993756,0.04024629592916881,-0.36638534551302654,-0.1745018950709643,-0.27822864749598286,0.054257991883350544,-0.3639977576313282,-0.36064718146392233,-0.27172066768779973,-0.05276732896410539,-0.19443209328567904,-0.3528159098144912,-0.35864747233753447,-0.5101049544365459,0.13069027636020816,-0.06942703793356554,-0.33224490879238355,-0.5626591270641133,-0.5686907386335889,-0.366927954285166,-0.20833938388368406,-0.2963746348692184,-0.1534815733221594,0.10148936309474119,-0.040059838284213944,-0.25240305794518114,-0.1498408384046469,0.3736180815063066,-0.11492864828092002,3
4.35,2.275,3.2,3.35,13.35,21.05,6.425,6.75,247.0,118.0,168.0,182.0,821.0,1255.0,411.0,444.0,10.0,11.0,14.0,14.0,13.0,16.0,16.0,17.0,-0.3051123998860675,-0.2344858890078008,-0.3246950126331287,-0.30592525788286834,-0.17598294695714925,-0.6175437360554211,-0.28588448648795245,-0.6491460077921455,-0.1358769280408575,-0.37650044071062994,-0.2327555232722688,-0.5588333775560519,-0.3081828199115217,-0.18563727757850473,-0.4635497039332261,-0.4251645767560184,-0.5307472807262794,-0.3773599975120979,-0.5527130031150876,-0.3766278333868596,-0.2370891782530491,0.0038608676937659063,-0.24208372691595895,-0.025036958102779592,-0.3326411831195487,-0.11465560414209297,-0.13019530997396303,-0.25745872363398675,-0.24003046657753038,-0.0964165372460355,0.17636643916790562,-0.25726969342063466,3
3.075,2.15,2.225,2.825,15.875,26.8,5.9,7.15,189.0,111.0,109.0,169.0,1071.0,1782.0,364.0,401.0,15.0,13.0,10.0,16.0,21.0,21.0,17.0,15.0,-0.10277545590667869,-0.33150723495674117,-0.2937747263759017,-0.030542505233752234,-0.2593152520924947,-0.5003103973243438,-0.3238399851545814,-0.3250243044129061,-0.06612878096482104,-0.2662940169538959,-0.23971937568513318,-0.12782217423505052,-0.3716668255886166,0.16824778381271666,-0.2882462662016557,-0.3287866801576622,-0.6411891248852627,-0.24708474184243426,-0.37215723581781174,-0.22212699295618235,-0.5906443868889311,-0.19249371834455903,-0.5142255405216312,-0.41719453661253475,-0.4064148498499569,-0.13437283711293327,-0.4290707975838047,-0.2908045104819637,-0.017227157502211116,-0.34230450638575927,-0.11849845288841374,-0.26148084255107584,3
3.7,2.425,2.25,3.0,14.5,22.9,4.85,6.825,233.0,138.0,113.0,192.0,960.0,1531.0,334.0,394.0,17.0,19.0,11.0,18.0,16.0,19.0,16.0,18.0,-0.2650248540862796,-0.15733442098448613,-0.01769383066600796,-0.2876724252696204,-0.3134328470766787,-0.07260252976144128,-0.3421484510964319,-0.3581076071786942,0.020233659387690336,-0.05738443139920686,-0.17944663503384886,-0.2648340351558463,-0.5360608656525113,-0.35603041564618276,-0.2286499617260872,-0.4067375054314961,-0.9137362272078083,-0.6134676041431626,-0.5032039728251514,-0.31339500405638276,-0.7932756662744915,-0.3197893876390026,-0.1777892345185473,-0.13360678637853354,-0.4474849692531816,-0.017082634846127178,-0.34916371848623423,-0.38646962830176956,-0.09276384701253114,-0.036341745573671515,-0.21741374804560365,-0.28404566840053797,3
4.05,2.5,2.475,3.025,10.15,19.425,4.925,6.1,247.0,141.0,146.0,185.0,610.0,1230.0,269.0,415.0,12.0,15.0,15.0,14.0,19.0,18.0,11.0,13.0,-0.1846151971795895,-0.17639646241328585,0.09719637334888938,-0.0607322396342022,-0.24323046003832943,-0.18594991518054135,-0.5347869731843159,-0.15949291403065244,-0.20195121972345648,-0.3376137932828961,-0.18494813958519862,-0.20555656172641112,-0.43533179694744434,-0.4982652296346667,-0.2316721736088264,-0.43686202955200637,-0.22749932859582153,-0.2017723274868888,-0.09221807475579338,-0.19359965905826554,-0.532585685499372,-0.27735265034788065,-0.2522691383016916,-0.24108742263722654,-0.2793922047242675,-0.45438020573676935,-0.488734876651546,-0.45041819124353066,-0.3109520595270934,-0.15725079972838862,-0.3484346012730342,-0.22440647249012227,3
3.45,2.375,2.75,3.125,12.825,21.725,5.4,7.525,225.0,123.0,148.0,197.0,847.0,1512.0,327.0,491.0,15.0,15.0,15.0,17.0,21.0,21.0,15.0,17.0,-0.32065518065999,-0.021759076108382822,-0.020202401714986187,0.10422307317217447,-0.15451776876318252,-0.1870912514056189,-0.10357235877518038,-0.16342400228379503,-0.20033672624964505,-0.1402549643498834,0.00574340002611927,-0.07243295386084277,-0.4827928794161672,-0.34805882429600626,-0.3105454573228745,-0.15410353481059635,-0.4660770126872994,-0.17343171031285548,-0.15358360339280802,-0.13895973162565292,-0.565564675203,-0.14968119475618163,0.05476050848977068,-0.02663890404486517,-0.23399152746262425,0.008977087569118839,-0.2011499933376513,-0.059559248971246995,-0.3680561993488353,0.07005061868644193,-0.29185251548669394,-0.4254189784978727,3
4.675,2.075,2.05,2.6,11.125,17.1,5.85,6.625,294.0,120.0,126.0,170.0,829.0,1032.0,340.0,356.0,15.0,9.0,17.0,12.0,24.0,17.0,15.0,15.0,-0.5025276287330155,-0.3736241644655623,-0.20644250591611732,-0.23562215875668363,-0.17306279448442002,-0.10874584049028126,-0.04058562837114019,-0.2728699305098604,-0.34475865833659375,-0.055212513964533014,0.11154066221524668,-0.16916566425681304,-0.34234991867199216,-0.23827466008638254,-0.004408208228164902,-0.4330642846666983,-1.1563202638128092,-0.978189219918361,-0.9255630242316224,-0.5944969029004042,-0.27648882930624763,-0.21732487370352782,-0.14281302128491385,-0.18376540760558474,-0.3296125054009747,-0.5128265262283644,-0.1377458871765264,-0.3287086608362684,-0.12835449900470247,-0.21481224164509888,-0.02421146350881275,-0.15282564312504804,3
4.6,2.275,2.25,2.4,12.625,16.425,5.6,7.675,294.0,127.0,145.0,164.0,872.0,1107.0,360.0,486.0,15.0,16.0,18.0,13.0,18.0,17.0,20.0,18.0,-0.42424131861769415,-0.2594202078440594,-0.14517594659265967,-0.02295067666038394,-0.3249142313605635,-0.17342308706500997,-0.21889124627529707,-0.2857665713211409,-0.45809370197575894,-0.11438383711956325,-0.3261008290030309,-0.37390771201224215,-0.22181900191640216,0.12281376146568113,-0.08045796182826954,-0.00950797178890743,-0.5671875182657621,0.0539024900620839,0.23526139285772052,0.021054546481945855,-0.35824387077253184,-0.13020865850690258,-0.14097104465836918,0.09915331426991193,-0.5018339197824504,-0.26557296472058023,-0.25169199013907595,-0.05915769747823358,-0.44247910170809457,-0.06770633143265732,0.08421630278643728,-0.14778979159469452,3
4.825,2.3,2.425,2.675,22.75,17.175,4.4,7.275,331.0,133.0,159.0,173.0,1577.0,1053.0,255.0,470.0,19.0,16.0,20.0,12.0,20.0,16.0,14.0,18.0,-0.550614488004713,-0.2472124829922419,-0.027600664956189375,-0.08047778287639018,-0.23481769806632707,0.025531170944208505,-0.0002368293106444145,-0.26580621177769026,-0.307715630091351,0.15264835275416028,0.1186057675332023,-0.48466820885962175,-0.4477589202781207,-0.16974098137102922,0.057663028882135245,-0.16526718471141727,-0.9701187094240675,-0.8092142487290395,-0.4078376636108556,-0.3260940237469066,-0.3299766827851239,-0.4402663124645769,-0.0946406957995559,-0.27945119861778606,-0.4279214248142574,-0.35565550406263535,-0.37965971407934523,-0.3732518907328455,-0.434200691865635,-0.20367772638219667,-0.19651571278712554,-0.21665249749330287,3
4.925,1.425,1.975,2.375,20.65,24.625,5.55,6.45,343.0,86.0,119.0,135.0,1413.0,1675.0,362.0,392.0,21.0,9.0,13.0,13.0,23.0,20.0,19.0,14.0,-0.4288361672327028,0.10537705954782725,0.09280660625509889,-0.1760145475494447,-0.27155175011048105,0.023534139553413002,-0.11603170872956609,-0.21400226425839367,-0.37924294434300687,0.07423993990332639,0.06024976134490852,-0.1868246286606344,-0.27072864194251717,-0.0009257189964203247,0.1908713863105292,0.0607141548528422,-0.8792639377842427,-0.3877421909420021,-0.29445241893466384,-0.30064909063211204,-0.5158434451049804,-0.18947683467153117,-0.17903113063991755,-0.10355567586176517,-0.4961692061317617,-0.06267938944713203,-0.32469362187377276,-0.22245974035131816,-0.3188293942330925,-0.35222904023969076,-0.3302577017965391,-0.41970300571178326,3
5.425,1.725,1.85,1.875,12.6,14.5,4.75,7.375,337.0,110.0,115.0,116.0,860.0,898.0,311.0,499.0,13.0,16.0,15.0,12.0,17.0,17.0,15.0,18.0,-0.3642960222412987,0.013865357838444123,-0.08139201008021517,-0.13721779580060478,-0.40778147883483695,-0.3293743048658838,-0.46295776292249063,-0.2446916113570853,-0.4597625327267584,-0.3142369997904575,-0.31776070204695145,-0.24904505604782912,-0.16686144473753262,0.03572606476160102,-0.12499452165049534,-0.3353514800926873,-0.7808518350144832,-0.4042376428154149,-0.17683885800784516,-0.1842861185722587,-0.3804027865313386,-0.1164301465913599,-0.4573629896108517,-0.36680649111860175,-0.5351879608631195,-0.12449262689402618,-0.17131582854645064,-0.3449046738085473,-0.4805157807404139,-0.17093991818869794,-0.23364128868817285,-0.30139219167019743,3
4.95,2.125,2.475,2.7,13.35,18.85,4.725,7.025,291.0,110.0,121.0,171.0,851.0,1222.0,275.0,509.0,13.0,14.0,13.0,17.0,15.0,21.0,13.0,19.0,-0.24114237565358917,-0.12779812150708836,-0.32714899326949215,-0.20329679309372567,-0.07616563864569566,-0.3041148166875974,-0.21809174450205426,-0.3449680705193936,-0.07687476795379453,-0.19638733808293676,0.01199325217377079,-0.39711479826715834,-0.2580614354438152,0.06329291043983486,-0.2770503434919602,-0.271547560869939,-0.3933406730120755,-0.06773827860976368,-0.10139527254922456,0.05642193952808827,-0.3377177983533322,0.09422873026425754,-0.1014353560626324,-0.26279132949912026,-0.27883185800686355,-0.24910443811858538,-0.29590102396689044,-0.32914025912982925,-0.5601953068610587,-0.050136578548349194,-0.08321633612937156,-0.17239409792506707,3
4.2,2.4,2.5,2.575,13.725,19.9,4.575,6.025,262.0,132.0,134.0,140.0,921.0,1146.0,287.0,374.0,16.0,10.0,10.0,13.0,19.0,15.0,14.0,16.0,-0.24825753342115958,-0.39201427877369993,-0.12514979623663772,-0.23024811046874827,-0.339537965311201,-0.2387085958157806,-0.37299560210723104,-0.28404931736095834,-0.18812993323513189,-0.1025869697842802,-0.22723953227459562,-0.11064441702195903,-0.3216791421859178,-0.30843465691244637,-0.2538581735116467,-0.2168163096568528,-0.5342547931782078,-0.21434502801634742,-0.24557634121161542,-0.03259569465794258,-0.17756532449985976,-0.08574970545330124,-0.026534220765292518,-0.28366652367778883,-0.530135381095576,-0.2995332438883757,-0.3861401366052744,-0.23607970946698129,-0.3022282594550599,-0.4204713595046313,-0.18960724578665253,-0.17158721432633037,3
5.6,2.45,2.575,2.7,12.65,18.35,5.925,8.5,361.0,144.0,148.0,148.0,743.0,992.0,315.0,479.0,18.0,16.0,12.0,12.0,15.0,12.0,14.0,14.0,-0.19133791203715167,-0.06024247540716005,-0.25683070455301676,-0.4266167405073041,-0.3341246929297151,-0.23683314779850992,-0.3295662506606218,-0.40026659615857696,-0.28714003182017667,-0.24737580490054467,-0.3709235788191929,-0.4041421296418654,-0.24107423028795608,-0.3017821012483257,-0.21805902330000662,-0.2660982291892094,-0.44082740330614456,-0.4290578598268378,-0.26534570739047486,-0.1617057115124921,-0.0514579633893702,-0.1815868604624503,0.043235884819432316,-0.03208174184562041,-0.11917556283091904,-0.23553751771521958,-0.33279552290610886,-0.1799512899220818,-0.28454024484785173,-0.2626824904229728,-0.2989590457071421,-0.26574352807462515,3
4.075,2.575,2.775,2.975,13.575,13.2,6.175,7.35,216.0,159.0,173.0,174.0,875.0,789.0,330.0,447.0,12.0,19.0,17.0,17.0,21.0,18.0,17.0,15.0,-0.011824559023340635,-0.14960364825986916,-0.0647983959545471,-0.3946963952866206,-0.38531763603101926,-0.05460528040928645,-0.2036225107125113,-0.5708222000640858,-0.2646174732816762,0.06998107986476058,-0.27960993579972454,-0.6653567268598221,-0.3372859166134069,-0.022668550995904955,-0.39459070123506684,-0.5717372987162939,-0.5050065801483948,-0.3248132927795521,-0.5132621517229913,-0.3876845439421359,-0.2762755774034177,-0.09706817383260052,-0.015491758222018068,-0.10862154103251864,-0.3526068690812777,-0.5226630191211569,-0.32126806095474775,-0.48557533789523066,-0.4423985889317024,-0.41119575600155145,-0.2341725514470806,-0.142879989081228,3
3.0,1.875,2.175,2.35,18.225,26.175,5.35,5.725,185.0,118.0,121.0,136.0,1332.0,1838.0,345.0,329.0,16.0,14.0,14.0,16.0,21.0,24.0,16.0,9.0,-0.24845728443253118,0.21623505499786955,0.013198511408481252,-0.3043676409245234,-0.3511536188031713,-0.2637467975045891,-0.04467246061594345,-0.04002553036966958,-0.05960782146337691,-0.2969140496486423,-0.015890728427103165,-0.13461780781526497,-0.4011555046853963,-0.3913610622543865,-0.23300328341713827,-0.4279105059923335,-0.7540698054607519,-0.016126375364688302,-0.1592591327306326,-0.3454602709499565,-0.8036546041372483,-0.3013887057255849,-0.2593690024207089,-0.219755172026473,-0.3245889916604743,-0.26765815202510845,-0.11912630921597955,-0.08184823536944777,-0.3955336144504526,-0.14972672898602346,-0.6030646641721195,-0.47171486852005334,3
4.6,1.75,2.225,2.325,16.95,22.95,5.0,5.25,301.0,102.0,131.0,137.0,1227.0,1519.0,298.0,348.0,13.0,12.0,16.0,12.0,24.0,16.0,12.0,19.0,-0.442865704313348,-0.17947153155807602,-0.49427101105173193,-0.3731733694051689,-0.3472592533796511,-0.2589253310360428,-0.1648921809394159,-0.17017886368840413,-0.3800053818051038,-0.48668239439984873,-0.281851173789215,-0.39046731034965493,-0.2625927358188655,-0.525696174171825,-0.30065301630522673,-0.2483888136048477,-0.7620568059034049,-0.33363133434271536,-0.13146296111886446,0.16585896343837989,-0.3349559394633115,-0.18729304746672407,-0.38760705494887676,0.07118616609887629,-0.010722002607598747,-0.17441065759316518,-0.3157332318452778,0.13493057434477013,-0.2551846505295377,0.06412676938920443,-0.31191836649351223,-0.22711311643355417,3
3.475,1.725,1.7,2.175,15.85,25.325,5.15,5.1,221.0,96.0,99.0,109.0,1067.0,1633.0,331.0,348.0,20.0,11.0,13.0,9.0,21.0,19.0,19.0,17.0,-0.2700135144425228,0.02501598235825457,-0.4867349613270363,-0.2622669894996271,-0.11494066394718429,-0.2545435202876638,0.0392290136743454,-0.19263043858703516,-0.2798958442171018,-0.07055676123954614,-0.0011742460255129328,-0.15004965269456735,-0.1691920672315375,-0.3656616498540097,0.0376177702632566,-0.26428473176899747,-0.49182950302247025,-0.48291036464368065,-0.3494668420644486,-0.47009319313154835,-0.5663084157902266,-0.40934918258322567,-0.3168656630093291,-0.3444760662009848,-0.4539911978905218,-0.5748481311763523,-0.2571409309543091,-0.36686409544784093,-0.27706219912698404,-0.189027550118215,-0.37227134401478523,-0.04732413279465238,3
4.65,1.975,2.45,2.9,14.775,18.25,4.5,4.7,309.0,119.0,146.0,170.0,957.0,1088.0,233.0,309.0,16.0,13.0,17.0,14.0,17.0,14.0,12.0,18.0,-0.5890999718021613,-0.3822403232704285,-0.37974147010311055,-0.2006440938989109,-0.20782273073327856,-0.34722003526356876,-0.03706159408337454,-0.3306975267023466,-0.3350145603368624,-0.2805885567422807,-0.17341351362604018,-0.3871715844761167,-0.30703162592530847,-0.4765147517563942,-0.24192246585393773,-0.5898820957341424,-0.8295027659664216,-0.7049970758099521,-0.42038837634857706,-0.3301961846430347,-0.23554049274071998,-0.5128600121122456,-0.29877443111771745,-0.6032662484558983,-0.26893919048185516,-0.423719478540025,-0.38326306079979455,-0.6032193245870384,-0.44036357238754503,-0.24024662880200037,-0.2093560628500235,-0.3571790874097523,3
4.175,1.875,2.7,3.375,11.925,19.75,5.5,5.225,266.0,111.0,146.0,214.0,767.0,1169.0,334.0,339.0,12.0,17.0,15.0,20.0,17.0,20.0,22.0,16.0,-0.44805954695704875,-0.0033230311063612524,-0.12622909150761608,-0.147260338699215,-0.2438473010399005,-0.063995659126157,-0.0073990306914229614,-0.07351214188431657,-0.23624245647150946,-0.26931988875859314,0.044264462617920664,-0.14327226694011505,-0.46721538827125153,-0.455191416979065,-0.06033467211348743,-0.26612410919736706,-0.32746456915809324,-0.4183596701097378,0.0818762679606043,-0.29400443204804894,-0.08537341934595645,-0.1630459431221939,0.0293939518383666,-0.25156901111642477,-0.5006312112490059,-0.17300132617136824,-0.3533291414845777,-0.2241532978929498,-0.416439444208716,-0.31125741576409516,-0.17226962374902083,-0.49781605430979753,3
3.925,2.15,2.425,2.825,18.775,22.825,5.05,4.6,220.0,133.0,143.0,163.0,1235.0,1561.0,341.0,264.0,14.0,17.0,11.0,14.0,22.0,22.0,17.0,15.0,-0.3324790787110744,-0.1534196084343949,-0.35386524450555484,-0.2587962677879202,-0.26700032759827674,-0.08843305509219514,-0.04778532946234545,-0.30623211755182017,-0.1508040832896932,-0.07644758479255476,0.023880599934671003,-0.4740760099094594,-0.24914427093356,-0.28761125305293045,-0.11095920827872793,-0.43000013065493625,-0.572616302285006,-0.38842589202801414,-0.47988693907347235,-0.3045612410793583,-0.3530566296020816,-0.21597583673447665,-0.087043231621008,-0.35109409431565114,-0.4427319954608285,-0.23515952788090258,0.04187084374224667,-0.32750138830009257,-0.1355748604093337,0.0015176263634105493,-0.17590289255993416,-0.22068915870830494,3
3.7,1.9,2.2,2.65,17.1,22.8,4.75,6.225,240.0,114.0,122.0,147.0,1153.0,1547.0,316.0,356.0,19.0,14.0,12.0,15.0,22.0,19.0,18.0,17.0,-0.45272107474764545,-0.15262554490858685,-0.294249736411382,-0.19959564178814812,-0.15107839535538664,-0.09790589464413538,-0.11847798859347619,-0.32237763422361754,-0.16582577125975073,-0.14647050120747085,0.22104630269513245,-0.08224207438838076,-0.45115802548049666,-0.3696726229059007,-0.1306451955761005,-0.14984693149631736,-0.8762023023862272,-0.741842436394166,-0.3871143778884345,-0.09989300295309922,-0.7067178867395908,-0.5751366370646076,-0.3440801783456277,-0.3192936499950732,-0.5206104591195174,-0.28353470420139065,-0.013419454588679575,0.04905744368740306,-0.3255783806553624,-0.4002944233420009,-0.44718840545390925,-0.2513450708286822,3
3.95,1.975,2.5,3.225,12.475,20.55,6.125,6.825,259.0,115.0,154.0,204.0,849.0,1383.0,389.0,465.0,18.0,12.0,14.0,16.0,19.0,20.0,20.0,23.0,-0.42227523813806794,-0.1387343510498416,0.012597451712317022,0.048893309602293204,-0.20574078077606583,-0.2651947436086806,-0.06752179607323447,-0.1816880243579567,-0.3792642134204673,-0.2994796534592964,-0.09116106945940225,-0.12722680509997927,-0.584868405069551,-0.4519208827924521,-0.3339052301861189,-0.25838954342772624,-0.6218223659789184,-0.3374094839531382,-0.1027964216088949,-0.1234373937780276,-0.7347074073873455,-0.4717753364064775,-0.3722227132262069,-0.31540078892136375,-0.5926623163308503,-0.6334772011269749,-0.3050287755491748,-0.2175697684290451,-0.5263580464222918,-0.14883563751573375,-0.42654941252372297,-0.2941716303162695,3
4.15,2.1,2.4,3.15,13.85,26.725,5.125,6.3,267.0,114.0,150.0,192.0,995.0,1674.0,295.0,430.0,17.0,12.0,16.0,12.0,20.0,20.0,10.0,20.0,-0.3144073938196294,0.023036407036566845,-0.29865078472425194,-0.30226491522995413,-0.23031733080130345,-0.2850526589679018,-0.3398720030385754,-0.40942605066357046,-0.3521752301756431,-0.20217655049588668,-0.20431510890602403,-0.4052239720669829,-0.37790876958658415,-0.22222423640030567,-0.2748814864243344,-0.5287820112555451,-0.8999531439306379,-0.7228514258519418,-0.5153999520520074,-0.07624531969598329,-0.45036033407611015,-0.31234669861146064,-0.16802208764537085,-0.21281806541261794,-0.13502918316962034,-0.4413979636969853,-0.17987465093043162,-0.460192221439998,-0.8788819073099348,-0.7285065941809102,-0.46868155668877387,-0.1794178367028275,3
4.35,2.35,2.325,2.4,18.925,24.325,4.95,7.15,272.0,124.0,139.0,144.0,1247.0,1500.0,290.0,456.0,16.0,14.0,16.0,12.0,21.0,18.0,18.0,14.0,-0.2774852490023779,-0.21106532764623476,-0.22961373195649068,-0.26330126815706695,-0.14092521240955652,-0.003932508541333444,-0.29022542523859807,-0.2673555771826442,-0.32098597253948946,-0.09801282944832286,-0.27871200054862105,-0.28022843076349574,-0.315280194314183,-0.28906839281172847,-0.2996323544103597,-0.5656007022391062,-0.48399655385412005,-0.39174926464745274,-0.15758374084837254,-0.20962255843604946,-0.35305442547339494,-0.33530551552669097,-0.23578716471032737,-0.2789487184175439,-0.39035945437636366,-0.19968175593693735,-0.6012766193737689,-0.4384087208490472,-0.43745146516009087,-0.574929759316372,-0.4118372150843069,-0.40327242573036604,3
4.425,2.275,2.325,2.725,15.375,23.425,4.45,7.35,293.0,121.0,148.0,149.0,1018.0,1543.0,257.0,451.0,19.0,13.0,19.0,20.0,17.0,19.0,13.0,19.0,-0.4194117815630044,-0.10961172818788696,-0.14117867081839194,-0.1505710974341748,-0.11538637463275359,-0.10566169157643403,-0.14239760931642959,-0.43929253403633933,-0.328858676066341,-0.09171574077849551,-0.019005894513946235,-0.15303889094294412,-0.2404374221426054,-0.021300213381913256,-0.23372787308872003,-0.40780384976319767,-0.41761602660738156,-0.11162854233748354,-0.1753858247529036,-0.28304856147651486,-0.3810351039382929,-0.006085309123494868,0.06908912385849805,-0.14601285196873423,-0.282784974166003,-0.1416263355713353,-0.18058154852384883,-0.29865319448727856,-0.33173791477225384,-0.20580734008607673,-0.31943948554862256,-0.29639647371070593,3
5.3,1.975,2.35,3.075,15.85,22.675,4.825,7.275,336.0,105.0,113.0,171.0,1073.0,1451.0,287.0,429.0,17.0,9.0,13.0,16.0,20.0,17.0,18.0,14.0,-0.2293190010765002,-0.07543245129284643,0.025651317000933958,-0.18543275432213066,-0.06808076144447195,-0.09489033701541323,-0.05522675662815167,-0.2852360971948438,0.11764536270106568,-0.23660115435432483,0.012509848646178903,-0.31080105683795994,-0.1868793139492445,-0.22662618978583907,-0.1479527690470609,-0.09887334310243459,-0.5341181971203666,-0.21813361517469318,-0.21617271400292362,-0.38991641103789043,-0.2990681216069223,-0.12356060869292702,-0.17053787045102956,-0.04989013192384879,-0.04790575660914019,-0.1692880069609135,-0.04412573922162224,0.009436725758045968,-0.29812263673985434,-0.052462075224022006,-0.22293053035446703,-0.19422185205050305,3
4.5,2.075,2.225,2.65,15.1,24.525,4.25,7.025,289.0,120.0,137.0,172.0,868.0,1686.0,283.0,440.0,12.0,16.0,16.0,18.0,18.0,20.0,19.0,21.0,-0.348039087407864,-0.1148355857851892,-0.18709769972725182,-0.2217996576286306,-0.5402502354941643,-0.3132192081338596,-0.44030050413846217,-0.4368831765094337,-0.2724671556301357,-0.09257047149063899,-0.334976158878293,-0.2615719363514855,-0.3917507736622794,-0.0422672141240024,-0.15667643559512567,-0.006703452280201831,-0.1957483311081378,-0.12165581222061178,-0.11076352792009284,-0.4077968092220045,-0.6742849509571043,-0.39580761959454197,-0.3288011273550812,-0.1422784745401157,-0.38163035814556934,-0.06738925967805029,-0.2788802239690139,0.07589481925292749,-0.29534732440275563,-0.24623347416812003,-0.15738140680353535,-0.1945726663516266,3
4.125,2.1,2.2,2.5,15.925,24.35,4.625,6.775,287.0,101.0,114.0,151.0,946.0,1624.0,293.0,445.0,12.0,11.0,9.0,13.0,20.0,21.0,19.0,17.0,-0.3012262523957038,-0.21340332269981077,-0.23416891357932823,-0.24201625135539928,-0.22910489823876942,-0.5467977407916573,-0.3912537579499426,-0.3331696820481904,-0.00884963215229542,-0.3978349797293125,-0.22993937516018448,-0.20668648761904576,-0.2435493496146328,-0.3759624419418181,-0.3175984088305162,-0.3039256564787695,-0.32108287462079493,-0.2616086812300628,-0.27168294119048386,-0.3869095130615575,-0.6490511431005594,-0.4170894006592015,-0.1637622803146418,-0.21398539000366776,-0.25176061701398234,-0.14135415563815676,-0.32987929949429573,-0.10173900025872026,-0.4822955899780414,-0.2598143322181464,-0.17174844798265324,-0.21705056336209608,3
4.0,2.75,3.05,3.55,16.175,27.925,6.7,8.45,254.0,119.0,150.0,191.0,1038.0,1727.0,344.0,544.0,12.0,7.0,6.0,10.0,16.0,14.0,10.0,15.0,-0.3684147153575393,-0.20843829030013,-0.31707983745093204,-0.32284146365809663,0.2024985848210432,-0.33489497034099436,-0.08725067236345783,-0.18029216040457424,0.3322433544893277,-0.3476356650491124,-0.095604421129229,-0.08646079445431777,-0.0063296711898615,-0.24028216574354505,-0.08559670914900284,-0.2501842050696563,-0.6917260424105973,-0.7110640347094667,-0.5260779983116591,-0.5315297961894192,-0.2742479305382038,-0.4376119127904035,-0.2623701150186012,-0.4763404381569738,-0.0561108439680356,-0.19410103466899298,-0.17957988484651002,-0.3047698333356123,-0.3489974306703708,-0.2805564846764395,-0.319661725521219,-0.2721705461102973,3
4.875,2.225,2.45,3.175,13.775,20.4,5.075,6.675,294.0,106.0,110.0,184.0,857.0,1300.0,305.0,452.0,11.0,12.0,11.0,15.0,18.0,19.0,16.0,18.0,-0.20568996614308313,-0.12403419492775608,0.04659481864130238,-0.05177278188742458,-0.10544510892539688,-0.24185181939163183,-0.0514120422902868,-0.23219510904303794,0.14991206284030062,-0.38816774046331737,-0.12336255550617915,-0.3538392943486689,-0.13175160015959386,-0.14358474009958042,-0.1306134605182678,-0.41482093516307766,-0.5373676477174664,-0.47152086167458923,-0.2035265695669938,-0.1581975342258033,-0.4933111825549514,-0.29270844492397446,-0.2686968482589015,-0.31372302071634084,-0.3790365884704909,-0.3278272455010295,-0.2251040333864142,-0.4215799192598073,-0.7444011763641196,-0.3375348026807463,-0.34969189826291713,-0.19677450273560407,3
4.175,2.25,1.75,3.325,12.4,16.225,5.0,6.275,260.0,109.0,104.0,195.0,703.0,990.0,272.0,364.0,13.0,8.0,8.0,14.0,15.0,17.0,11.0,18.0,-0.15818904620784024,-0.06704912345378891,0.10661907285001648,0.2273662815243953,-0.029818533713304455,-0.2907885936925393,-0.11670359604791682,-0.3373968101317126,-0.0955101950190733,-0.26089024771905983,-0.01954291201429928,-0.15608085603273866,-0.15788465836803145,-0.0357529204449455,-0.08767736921645608,-0.18286355721194933,-0.32657306096250827,-0.5025741981145792,-0.35847420123289186,-0.38189750729394284,-0.39669495484651107,-0.5794713356945868,-0.2401212656906377,-0.3391835681992124,-0.2052301766575401,-0.3847474175384104,-0.199257844456235,-0.22614131121834963,-0.23916919579458024,-0.3681446040339719,-0.13848828792120504,-0.11093923025290355,3
4.375,2.325,2.925,3.4,12.925,22.975,5.025,7.55,274.0,96.0,142.0,169.0,850.0,1527.0,257.0,449.0,16.0,6.0,12.0,12.0,21.0,21.0,13.0,11.0,-0.045711738344801786,-0.22763712344115453,-0.0032739361943492917,0.053877699638454055,0.2678584875768042,-0.1695471042579115,-0.3955692940053137,-0.00923811607468731,0.21669920974813833,-0.2283046101728365,-0.2643154832758507,-0.023708262692335842,0.1381753388469964,-0.45499590247702065,-0.035041433363483726,-0.21381022934325972,-0.6576992031950764,-0.45592285996820714,-0.31578720470862437,-0.31514178964409506,-0.4789411589720915,-0.12061388824012899,-0.2535028761987978,-0.27807464531794074,0.026396541956340575,-0.11423724419628391,-0.265627675841999,-0.13797257411753044,-0.19020226946111352,0.0366209097066358,-0.15707688858236166,-0.27575759529235183,3
3.775,2.15,2.65,3.075,16.425,28.425,5.05,7.85,259.0,121.0,145.0,150.0,1085.0,1837.0,313.0,529.0,15.0,12.0,12.0,14.0,16.0,18.0,21.0,19.0,-0.1420431494812696,0.2622785750825412,-0.12719591611324738,-0.20273083259044955,0.028416308966349297,-0.43274195421906486,-0.22537906434482355,-0.14812226270049883,0.01022658463802772,-0.21178787157768145,-0.33479981770268846,-0.028271678585214264,0.009649989744900729,-0.1502386274748557,-0.3096082266543029,-0.06221883582160145,-0.6470724227426916,-0.3401621631127243,-0.2599592281439706,-0.3373311188379286,-0.3892761672590779,-0.2222975304454359,0.014443615186360254,-0.05037025386945576,-0.24459044114387338,0.03480949148180423,-0.08332028634673175,-0.14447863358846702,-0.21791678549582705,0.13030539183420123,-0.21498819582016784,-0.19902360189803278,3
4.25,2.05,2.425,3.0,13.25,26.175,5.625,7.125,269.0,119.0,129.0,180.0,855.0,1810.0,339.0,445.0,13.0,14.0,12.0,14.0,19.0,21.0,14.0,16.0,-0.2376781208006236,-0.35326951639770354,-0.2586076280741034,-0.4981546856804077,-0.31093487455304114,-0.3463829897100849,-0.38285054222147746,-0.05089322564103378,-0.35091425531387643,-0.2773813526678443,-0.49758930990149,-0.2821865930629517,-0.4243967883126267,-0.4539068236755593,-0.39319595761831866,-0.2705275555455796,-0.3684942197245276,0.18119251662726016,-0.07119571702376959,-0.44782368006564344,-0.622129457302883,-0.2177820935082002,-0.1099246049924,-0.13541830574187183,-0.4171591644602924,-0.5472388842775393,-0.21277865756385345,-0.23090580354786377,-0.2960805703614428,-0.013844329262986938,0.1348527844293575,-0.11269543790496704,3
7.425,2.8,2.425,2.75,10.675,17.6,4.85,7.325,457.0,158.0,150.0,163.0,679.0,1231.0,286.0,441.0,16.0,14.0,14.0,14.0,17.0,20.0,12.0,14.0,-0.2049993421432494,0.036951939497154716,-0.31313516093829136,-0.29280517534070843,-0.4103311461606343,-0.29408759004389146,-0.3749698077479333,-0.3090432974199564,-0.3068833681502621,-0.05539838318110392,-0.3600726555594616,-0.22770364142311356,-0.2478838955602135,-0.21318391787093,-0.27038172557062473,-0.3356635251539174,-0.2329791430112727,-0.33713403744248716,0.021504479333657157,-0.13295241324477425,-0.45262982708215516,-0.23872345855206872,-0.13049207791312986,-0.14375721390130614,-0.1348002966886259,-0.49911103037826504,-0.08176977432548223,-0.46006439272077027,-0.15681841995547696,-0.0020737457630702425,-0.10388807786424756,-0.519642400245654,3
6.175,2.025,2.075,2.85,12.75,23.775,4.8,7.65,427.0,118.0,107.0,159.0,864.0,1677.0,329.0,464.0,17.0,10.0,12.0,14.0,23.0,20.0,16.0,16.0,-0.2896719595502145,0.06274750893470185,0.20003869020332476,-0.08426749914092489,-0.3527063645876777,-0.24962537434174248,-0.09108033614652096,-0.17214050141883586,-0.13430898980862824,-0.38116862942315294,-0.3122601980522898,-0.30420998094126467,-0.26302048206356304,-0.4791400291418699,-0.18156931349911812,-0.36929074513489146,-0.42802133755075805,-0.14270169189744952,-0.004152046667806365,-0.2747984936156986,-0.49956514514892586,-0.07255428123385915,-0.021675089302368524,-0.21551376192435154,-0.6611016210142481,-0.15086896777911835,0.14504015394321396,-0.02971023933031439,-0.245359132052673,0.10975308122526785,0.1511945031827765,-0.18338329433679856,3
5.25,1.525,2.0,2.75,13.5,21.725,4.425,8.775,312.0,91.0,116.0,167.0,846.0,1497.0,283.0,537.0,16.0,8.0,16.0,16.0,16.0,21.0,14.0,20.0,-0.24038300087520667,-0.47345862398758365,-0.05933349353617756,-0.27255197246955337,-0.3214128994600936,-0.3229915199765642,-0.1862584884713719,-0.07087288651633071,-0.2633133960986135,-0.409885769295994,-0.30402282341019965,-0.2072775066545054,-0.4331924820415738,-0.38839647216251966,-0.011164075546908958,-0.019319797978717645,-0.4366090490862052,-0.6201435614546399,-0.10432523812575174,-0.12571320884642667,-0.8918674930236776,-0.5949369398926955,-0.16926991012677978,-0.07561708383467479,-0.5436977896510522,-0.021273352209373392,-0.09772354513793621,-0.20244191360640604,-0.39916545402623815,-0.45372817017022454,-0.25492733397228745,-0.2025925952561735,3
6.0,1.725,1.975,2.675,12.425,19.075,4.65,7.475,309.0,107.0,118.0,170.0,820.0,1213.0,316.0,457.0,13.0,12.0,14.0,18.0,16.0,17.0,20.0,15.0,-0.024917214053933736,-0.21045299475149276,-0.24391205124604592,-0.1710316039182836,-0.18101048343386023,0.08893560942645128,-0.01911099582043158,-0.1576536427950153,-0.29950925927502847,-0.21052598622117163,-0.4765594398488757,-0.09838175941269425,-0.5300343670547203,-0.20316129416087692,-0.2925548245158833,-0.16022645388609197,-0.46073735274175,-0.6520788210157662,-0.23934422156110755,-0.10171150611491875,-0.49561742020374383,-0.24356907976430747,-0.22966929263985858,-0.1647885028286732,-0.5686807304664389,-0.2442936371978621,-0.4058425700726712,-0.2915868475998331,-0.23371732687522973,-0.3000088776771849,-0.38812578871557246,-0.14299248328796885,3
3.925,1.775,2.05,2.525,16.425,17.375,4.425,7.125,231.0,92.0,117.0,156.0,1195.0,1058.0,266.0,470.0,16.0,10.0,15.0,17.0,20.0,19.0,14.0,19.0,-0.3171295610736821,-0.296676530663735,-0.18015725394576843,-0.25271421025848456,-0.009357602064525808,-0.21445408589239112,-0.009148289769379793,-0.02608145794401704,-0.22216217035226546,-0.5367516308667782,-0.18903030918856256,-0.14521656863035756,-0.24613006102715998,-0.12904253096422563,-0.14424129353119033,-0.27028310721619947,-0.7769661332291279,-0.5214233864065883,-0.2252676838145158,-0.2413347179411341,-0.4878716558448602,-0.5031159053760116,-0.181375954471568,-0.23607833726004276,-0.30888769917859626,-0.0725393533523961,-0.1537909823491385,-0.16155782347040773,-0.2546147636308853,0.10508858034613676,-0.13830246366601112,-0.1552638349463608,3
5.125,2.075,2.625,3.05,14.45,22.675,4.825,7.075,313.0,108.0,146.0,179.0,1057.0,1480.0,254.0,491.0,16.0,12.0,15.0,15.0,21.0,20.0,14.0,20.0,-0.19220788726643426,-0.12083410048836012,-0.0735134295295533,-0.3475298003165192,-0.14302540413664466,-0.00014513880782146562,-0.30805223207656174,-0.3791881187025598,-0.21673781835721795,-0.0879756577989694,-0.2884236178470652,-0.28699684878780485,-0.18624834881863744,-0.08220947509178,-0.19461931118627954,-0.3171759154332529,-0.8901826550695211,-0.5676188837499536,-0.43623655676904094,-0.2902798328354184,-0.37026795976919114,-0.11575721758307186,-0.3021466320205524,-0.3511427110204921,-0.15604288453808463,0.019975320388563866,-0.3591192225262536,-0.23936498705794157,-0.5573703075952089,-0.05566628494445327,0.19009301382314717,-0.09912585517551138,3
5.85,1.775,2.125,2.5,14.875,20.425,3.925,6.425,380.0,85.0,112.0,136.0,1005.0,1264.0,229.0,393.0,18.0,12.0,16.0,10.0,16.0,14.0,14.0,10.0,-0.302752610319371,-0.26839431171212386,-0.07545755073519898,-0.25979124867942743,0.007752658990261184,-0.15778772052778897,-0.13701985638866793,-0.1815672961405786,-0.14103708724213856,-0.24815723347227886,-0.008678876736078539,-0.41937221981262235,-0.05029635966928227,-0.2311299998712151,0.05241041235233295,-0.12296096656920039,-0.8407349886959681,-0.8283772526032782,-0.5459144498957826,-0.4720737570903796,-0.5216611639285906,-0.41294570186060636,-0.523305706550169,-0.23321494755065683,-0.07770214362285853,-0.08252335449896106,-0.411839028744645,0.03389739649237933,-0.2711373804784857,-0.2626407096451269,-0.344420122674879,-0.14244237898784062,3
5.075,1.625,2.075,2.35,12.85,18.275,3.575,7.55,304.0,86.0,125.0,141.0,754.0,974.0,235.0,447.0,12.0,11.0,13.0,18.0,14.0,14.0,18.0,16.0,-0.17039491255600694,0.020107445714422058,0.0050886372265940595,-0.14936240085125066,-0.1967406631624022,-0.4672783645769471,-0.10329745921226492,-0.062358635779859437,-0.16583392263720154,-0.3456419554167808,-0.06686530342697422,-0.28337982707118675,-0.27362591736661634,-0.3962532911803397,0.1729917958821586,-0.145844883272121,-0.24822441793631098,-0.48041189023042474,-0.06846156907019849,-0.40403267225559275,-0.27051638224259106,-0.3220630996432288,-0.39496009904808005,-0.21492608223090898,-0.10345010822666512,-0.3263607333660612,-0.02982514408521093,-0.09773990280894451,-0.3600648172151828,-0.1659083893625688,-0.03633418026021305,-0.060698860070011885,3
4.475,1.7,1.875,2.0,13.225,20.9,4.6,8.525,258.0,79.0,81.0,126.0,882.0,1434.0,297.0,520.0,17.0,9.0,9.0,16.0,20.0,22.0,14.0,18.0,-0.15355593093259745,-0.41666578376627134,-0.19114959766961281,-0.33962178788317327,0.19244744657094537,-0.3991683971633832,-0.10259296821631089,-0.2910305525524626,0.21979670540058183,-0.32437437037002237,-0.11024253191971353,-0.2601161694561047,-0.1826467554702627,-0.22257910834013872,-0.07949913131167545,-0.36231821599543734,-0.5221477790506476,-0.17810421865177473,-0.24264291741947877,-0.40845123949553597,-0.6434951431872704,-0.4992200440764299,-0.21034261978803576,-0.31782636503852046,-0.215177822839709,-0.2432484039836426,-0.18369096937278578,-0.24776330017918455,-0.4238077295552378,-0.44027760572741165,-0.13936819396355318,-0.2939468454540068,3
4.45,1.7,1.95,2.575,12.125,25.425,5.25,9.55,283.0,87.0,104.0,161.0,841.0,1641.0,351.0,613.0,18.0,8.0,12.0,16.0,18.0,18.0,18.0,16.0,-0.2763936410736145,-0.06593752620621901,-0.09614745606353492,-0.10564046455696585,-0.09986265934838574,-0.25460409411039453,-0.14706957964684764,-0.278010235978871,-0.0073504877798116555,-0.15894955996903284,-0.07731203720419254,-0.4012534252518622,-0.18826716848408465,-0.15204780063521844,0.04200531143355807,-0.02191215216626079,-0.5620321844099015,-0.3092318494067422,-0.14211018486739577,-0.03683179155348954,-0.48991213631307384,-0.40846138356975964,-0.13515492019054665,-0.2671775683477587,-0.40495206580062676,-0.044287125820377665,0.31946475237607297,-0.12523739395507177,-0.619202832255711,-0.40228206112951326,-0.10395333378912631,-0.27747552790733593,3
3.6,1.85,2.0,2.425,15.925,24.05,5.025,7.925,239.0,99.0,112.0,144.0,1058.0,1424.0,288.0,540.0,19.0,15.0,11.0,13.0,18.0,16.0,14.0,17.0,-0.4162360061595642,-0.10163758477034303,0.027967636507343463,0.05755883528142744,-0.16710821300834663,-0.04213830815976103,-0.31654230563207647,-0.12886283752203306,-0.07536094409423388,-0.16304451020157212,-0.25178689186244096,-0.3762287989850012,-0.1694973004597042,-0.07458589535303559,-0.15660695339243327,0.18456874381514726,-0.5079414880126435,-0.3351233902519872,-0.037859496498684496,-0.13241866155366874,-0.31264721982252436,-0.07516911650080034,-0.06190397429301944,-0.39981726256175065,-0.2636753996926532,-0.22504986372630967,-0.22409784712444736,0.05981640294324714,-0.5543308111966373,-0.396632135285193,-0.09916671568957823,-0.15621777379728094,3
4.125,1.9,2.15,3.7,13.1,22.15,5.65,6.725,268.0,82.0,105.0,202.0,777.0,1181.0,296.0,417.0,16.0,9.0,9.0,15.0,17.0,19.0,14.0,15.0,-0.49720510071569973,-0.1690662260088647,-0.33388648099091195,-0.28151171155312543,0.21672189475477624,-0.14726792010483739,-0.25093508730323705,-0.1844145272428885,-0.019989735311590814,-0.27981913316201706,-0.3503675489358037,-0.1816829457798796,-0.02118139894373115,0.001695798887513978,-0.4539292023557139,-0.07164064383230985,-0.2322327257961193,-0.2847340083091004,-0.18193993163238684,-0.1824828868315482,-0.29993743666757844,-0.3642243390742028,-0.4560884126050241,-0.1763948003170878,-0.12149399890821821,-0.3614530533703785,-0.24889616197651135,-0.3039904514650103,-0.45664271728077704,-0.4996952867515117,-0.2418450653745727,-0.17740628819851204,3
4.75,1.95,2.6,3.65,11.75,21.375,4.825,8.025,301.0,89.0,135.0,173.0,752.0,1246.0,322.0,481.0,14.0,10.0,14.0,12.0,15.0,19.0,16.0,16.0,-0.35531489488472207,-0.12866549031464572,-0.02658879979341381,-0.10693231701257111,0.09452155076770104,0.1356270992129679,-0.16890948502708356,-0.48170852964934474,-0.013727764004893056,-0.045731743456813585,-0.11137215460262763,-0.4160093610394882,0.03554238867895806,-0.049114852913790905,-0.3464288703693011,-0.311853345712495,-0.2901323759230856,-0.0606417934748734,-0.3260276143205215,-0.07691568812825313,-0.12611978368675994,-0.16060095991305412,-0.2612024309980154,-0.11636964402448012,-0.32266399184754013,-0.2899888593684698,-0.1582994333197647,-0.3125418613851364,-0.454245019086159,-0.4183880706549755,-0.20117226385309092,-0.34606794396235546,3
4.6,2.275,2.775,2.85,11.7,20.45,5.45,9.125,295.0,120.0,172.0,148.0,629.0,1372.0,381.0,574.0,17.0,16.0,18.0,12.0,14.0,20.0,14.0,19.0,-0.17072729454737545,0.0505733582820657,-0.08180595262165907,-0.2539585278468089,-0.12602029729514966,0.2168810998736074,-0.16091542957402072,-0.4516074426506209,-0.31579876229332476,-0.09431219092162492,0.007137813963535672,-0.32134569074956837,0.20268703958003775,-0.34582678461243094,0.021012989850203865,-0.4355569950493479,-0.18626368160441711,-0.3141135091978886,-0.28634002287236376,-0.39235893370029995,-0.17246948583627478,-0.2450102605687844,0.05609228487765879,-0.47960442072377696,-0.5575839441466275,-0.25014477450757183,-0.11065362992785185,-0.3503043783047323,-0.1581851499580652,-0.057843405349113856,-0.2856438496765515,-0.05852857863330925,3
4.2,2.0,2.375,2.775,12.6,20.75,5.275,5.775,257.0,124.0,133.0,171.0,823.0,1309.0,346.0,368.0,14.0,13.0,13.0,15.0,19.0,15.0,18.0,16.0,-0.3039572051310495,-0.29511566283172314,-0.2584417260362015,-0.32797485146276595,-0.5131688587396066,-0.2565033964612219,-0.5425449032461195,-0.3457401914694053,-0.37717309432763835,-0.43551552565326845,-0.4422623805044276,-0.22626812658040635,-0.2782663094465329,-0.09276499939230783,-0.13646476883237985,-0.08912917449491736,-0.5160314555160341,-0.25963838015723345,0.015366707123391376,-0.10089887987251937,-0.44518703344343286,-0.15776818130731535,0.039211310562307394,-0.16838290223047,-0.5704315619906923,-0.010049006717512177,0.12545006964178815,0.11954509868828544,-0.036738591023850825,0.1070805874211349,-0.22167272634828697,0.08269183308664096,3
5.6,1.825,2.075,2.675,9.625,21.45,4.625,4.925,335.0,119.0,139.0,168.0,626.0,1262.0,301.0,301.0,15.0,13.0,15.0,18.0,16.0,19.0,20.0,15.0,-0.1871995540993544,-0.21478002127751972,-0.3274967520710097,-0.05024829783566659,-0.7558961322490122,-0.5797803070177823,-0.6449076602535009,-0.33913346146810175,-0.6294898318395207,-0.5416572769614565,-0.2958345289856996,-0.12331051399060977,-0.4743206272889365,-0.3712061307990706,-0.2607527153201108,-0.34057433653228625,-0.4609846809875716,-0.254647893006082,0.12343701425302232,0.06030656831123038,-0.21963101230922122,-0.45906234051397826,-0.014988657566270628,-0.458091934785849,-0.5231308763451715,-0.28660633560332205,-0.10288206138194675,0.01043969459916326,-0.38336515738373383,-0.28442767755973164,-0.26048709356657385,-0.04680956456877134,3
5.425,2.075,2.225,2.8,16.0,20.775,5.425,8.525,349.0,99.0,102.0,145.0,1114.0,1292.0,314.0,538.0,16.0,8.0,6.0,11.0,23.0,18.0,16.0,16.0,-0.08981653297006367,-0.16308440235846974,0.1372501833258729,-0.29852897273206724,0.13265567413926108,0.08152473700668796,-0.2745961255171417,-0.2063580152244742,0.17756317727506896,0.020582019282537355,-0.29672640363701314,-0.10830316596737836,-0.03923865243624927,-0.11701306172525815,-0.397034718718529,-0.23416546059371954,-0.8792381325635232,-0.3710314432658726,-0.1381695344034755,-0.1423508849215123,-0.5473003109349251,-0.1691869426605555,0.10368803655304948,0.03570146045930208,-0.39491736479307965,-0.16348704294165622,-0.37166363377491546,-0.23967425884528007,-0.31114317286469584,-0.2529660521648765,-0.31109311943246615,-0.2590548715845861,3
5.925,2.55,2.6,3.425,13.85,21.475,5.875,9.8,393.0,131.0,136.0,183.0,937.0,1465.0,363.0,662.0,20.0,14.0,14.0,12.0,18.0,19.0,19.0,21.0,-0.4117264939118082,-0.23385014318563066,-0.029933922469090525,-0.1999873613570416,-0.07896781401754101,-0.12338818877377378,-0.14910001522481608,-0.15917122045154114,0.08283363768136054,0.04296954932261299,-0.19677801890913346,-0.006585053738150189,-0.02367105552743981,-0.19144968259274625,-0.3335540635848525,0.016964575286959185,-0.8699134130728414,-0.43361985130602243,-0.11652875174930358,-0.07704490886457269,-0.48545532194690083,-0.18519463842712922,-0.4119800078936971,-0.0767695397222976,-0.4330648262249449,-0.06257402855473139,-0.32368862485614286,-0.2583708337096175,-0.384718538267608,-0.17459991698456653,-0.20644451818345882,-0.19821098341522225,3
5.775,1.975,2.15,3.075,12.55,22.175,5.3,9.375,362.0,115.0,148.0,201.0,842.0,1507.0,349.0,636.0,17.0,14.0,16.0,20.0,20.0,19.0,18.0,18.0,-0.24631480082075313,-0.2339243362688149,-0.21777739570969223,0.030106251258001804,-0.4149361640438284,-0.45703927200121314,-0.21915863040812078,-0.14550371362455547,-0.19976764418014967,0.11182741151906894,-0.18216743314855366,-0.18220238314571166,-0.3640511630591629,-0.31184393954581807,-0.4093970377728666,0.15362467111920788,-0.7532063722399208,-0.6102517461254624,-0.45632132975275375,-0.09430336594490091,-0.3883305888473399,-0.14454331689966535,-0.17551351148023092,0.1532708842428068,-0.7914541707199214,-0.5756968470127287,-0.4778662222588893,-0.24781165493971521,-0.49164608549164185,-0.15686958572976853,-0.16572106694002553,-0.2527281969159512,3
6.525,1.9,2.05,2.475,13.35,21.9,5.725,7.875,423.0,105.0,131.0,158.0,893.0,1467.0,375.0,519.0,17.0,14.0,12.0,16.0,20.0,18.0,15.0,19.0,-0.23994115391991422,-0.16435341797609912,-0.005879149320039925,-0.1498455037085553,-0.3889468344055228,0.1614903151543926,-0.05696678366165942,0.06534898796520579,-0.42492309269217704,-0.18075372607611115,-0.45042835857471564,-0.17853957891502065,-0.47454556318567764,-0.35499535411443717,-0.5054861018489896,-0.35765507216329495,-0.9945122821245578,-0.8757123571051451,-0.6510052220702653,-0.3290821819822279,-0.6243422355066627,-0.3148963870957725,-0.20945315121886093,-0.18723899414038944,-0.6293309349327675,-0.2187431614712349,-0.634704559524483,-0.446806310522644,-0.38100493229695076,-0.44104606493259696,-0.22220751418426002,-0.18743859689138626,3
