0,1,2,3,4,5,6,7,8,9,10,11,12,13,14,15,16,17,18,19,20,21,22,23,24,25,26,27,28,29,30,31,32,33,34,35,36,37,38,39,40,41,42,43,44,45,46,47,48,49,50,51,52,53,54,55,Gesture
5.825,13.675,6.35,6.975,20.35,33.375,10.925,7.675,389.0,955.0,438.0,441.0,1409.0,2140.0,668.0,463.0,19.0,17.0,21.0,21.0,20.0,20.0,18.0,18.0,-0.38073807608735466,-0.22996047662928804,-0.0002950797407683841,-0.12005910856918378,-0.17146889475896254,0.024379690334090574,-0.22549404465771472,-0.13343918412278918,-0.49191620596515656,0.07291959389833277,-0.14038270177959988,-0.3001158271103994,-0.387662250979116,0.15126410892068748,-0.04616759904838411,-0.31826811880254297,-0.6449209936275462,-0.17636150319489136,-0.017783460939150057,-0.074663485462555,-0.3530671329454015,-0.1498499579480059,-0.16761907934396472,-0.3564222816310851,-0.456226657857272,-0.33883257318268606,-0.2519055916585072,-0.0693549516150068,-0.07940362471319497,-0.03560621664411946,0.15530101350112607,-0.12777624453113434,2
6.35,13.325,5.575,5.65,11.525,33.1,9.95,9.675,436.0,859.0,360.0,343.0,743.0,2077.0,650.0,668.0,20.0,15.0,17.0,17.0,12.0,17.0,19.0,18.0,-0.42501785762420563,-0.2987599136008628,-0.10276079550018086,-0.09784624563437169,-0.26724840076422657,-0.17635506936624595,-0.014124979576021282,-0.26690451568666407,-0.5589323733135679,-0.44378486808108186,-0.42481906560990834,-0.22341846475609117,-0.4467409821173085,-0.3012525832405409,-0.4796355606221375,-0.3642589164861838,-0.2877847138487502,-0.45174676995373664,-0.26006606446909625,0.01777456225192328,-0.5094202589796357,-0.18554144441046863,-0.1381747060008108,-0.1185382048508988,-0.5237162246780244,-0.2653662678886127,-0.2763871638824851,-0.03429723935394716,-0.459621441176986,-0.12493539561809272,-0.22142221365956538,-0.4413322577324593,2
7.825,13.35,5.925,5.575,14.525,29.9,8.25,11.6,537.0,928.0,388.0,350.0,809.0,1902.0,508.0,754.0,18.0,16.0,17.0,21.0,15.0,20.0,16.0,20.0,-0.4172249091614194,-0.3202380126186164,-0.1950509407024201,-0.39900206303772895,-0.6730277878912642,-0.5276358203045152,-0.5247467598609871,-0.3315099639393447,-0.43914607618294715,-0.13807392652438374,-0.3265932064299286,-0.17240647478894772,-0.39383895264600494,-0.3170537914361251,-0.3361789300787089,-0.2822293132426239,-0.1537699474762957,-0.3359888947606055,-0.0756796138185401,-0.22429343010534195,-0.6225422238920861,-0.30828435215186833,-0.27697604825989136,-0.19970680492239423,-0.4968628890996513,-0.25395713416415805,-0.15343769225689663,-0.10746527854760558,-0.5561881227498457,-0.16478029756391993,-0.048321971956756145,-0.142572337999031,2
7.875,11.725,4.85,4.5,13.425,20.15,7.4,10.6,550.0,773.0,314.0,251.0,871.0,1388.0,491.0,691.0,21.0,22.0,19.0,17.0,16.0,19.0,20.0,17.0,-0.31539842972372395,-0.18339170961586382,0.08438331793046455,-0.2543216766901807,-0.27621720371362585,-0.06790794895597659,-0.2640078415424201,-0.20805867131091266,-0.41332830235717866,-0.07551245329049776,0.00817975378607082,-0.3656821050743256,-0.13477920210808114,-0.22950002342988188,-0.04687000454050692,-0.27234110955228585,-0.5534836015797117,-0.24176092315680298,-0.1406075029425425,-0.12891335485894861,-0.7135585740129822,0.0046620503577015845,0.4658291040762718,0.41619010973391585,-0.33141928455751696,-0.138826385043915,-0.07759292963404552,-0.3362454784926875,-0.45312531027834824,-0.18545435148834477,-0.18095178523974517,-0.2676957451846031,2
6.825,12.225,5.25,4.3,13.05,28.425,10.15,10.325,454.0,806.0,306.0,247.0,784.0,1868.0,698.0,702.0,22.0,20.0,11.0,16.0,15.0,18.0,13.0,20.0,-0.30360073860648756,-0.037550980213271676,0.08544178929250597,-0.20152113566810997,-0.426327102796928,-0.24543412962078293,-0.11329902977221691,-0.2082259829670482,-0.4714948400238963,-0.30470161409607244,-0.25779584828028024,-0.21692541671927676,-0.2335527857825558,-0.27758577416364316,-0.2820130812328951,-0.14154816274531531,-0.521779683541962,-0.4622444974616003,-0.5497995843654222,-0.07277742883447082,-0.45504235906082485,-0.46383436788764343,-0.07088207891334614,-0.25683370467407135,-0.41107798394459777,-0.11824003032450865,-0.3408621887778309,-0.40357671402191464,-0.4905456686849999,-0.033907689320158835,-0.04338713624116628,-0.17781056753198463,2
5.375,13.7,8.125,5.35,11.75,27.475,10.425,9.1,367.0,866.0,489.0,327.0,739.0,1808.0,647.0,628.0,15.0,17.0,17.0,14.0,19.0,17.0,20.0,20.0,-0.40263902664399254,0.05003860727605748,-0.20973914850336242,-0.3147725045121904,-0.29593113217093003,-0.11198805029902498,-0.1173456574310836,-0.13437325536940148,-0.2564203724464826,0.07426115287145493,-0.3490570206749769,-0.23840059399533547,-0.3955400616877508,-0.08298872759592091,-0.2137447961417158,-0.37773890939999016,-0.3107870793548195,-0.25010911425697896,0.21667924877919909,-0.1280004069969685,-0.4177774791329518,-0.3427548775084059,-0.06664498839357749,-0.2316267186967038,-0.19619029371118418,-0.0791111026136853,-0.20995789837329623,-0.044840232384925204,-0.5549596249131431,-0.0538639389669235,0.12453932935321037,0.12217226004501053,2
6.05,15.175,6.3,5.225,12.2,19.125,10.7,8.875,402.0,944.0,362.0,314.0,846.0,1346.0,649.0,582.0,15.0,17.0,14.0,15.0,17.0,19.0,18.0,19.0,-0.4363834999525058,-0.4467252054732743,-0.17643039162401356,-0.4509626411641477,-0.44956582937900297,-0.49226710892272985,-0.21826816122529136,-0.3965711622451017,-0.08551598039614262,-0.16084206131764064,-0.06367193297345633,-0.1520304566509347,-0.2879650959131597,-0.42944375548291214,-0.16398240466769717,-0.518754160059359,-0.7249197504417382,-0.563596020941862,-0.3777611177806243,-0.35677363094402126,-0.5215246732167539,-0.2912706455457588,-0.22604242855400178,-0.3839999430223266,-0.4155403996427694,-0.38610852108924837,-0.32401502676328714,-0.36206861708672783,-0.6041786295228239,-0.5069391602465484,-0.3398427669870413,-0.14240050404611368,2
5.475,13.625,6.05,4.025,11.95,21.675,9.85,12.525,287.0,841.0,414.0,258.0,847.0,1416.0,659.0,828.0,17.0,19.0,19.0,15.0,18.0,22.0,24.0,18.0,-0.17720595430302286,-0.061426278009515604,-0.07708636662940592,-0.10315907227453222,-0.5734264009763163,-0.5687986171756481,-0.2972455911563058,-0.3911334237692275,-0.4181994799566693,-0.6546611589605004,-0.12471197692154914,-0.35063420820948404,-0.42345897378253644,-0.18687509187306786,0.12067837246459293,-0.09251144070615629,-0.5723247369640588,-0.18332602319671373,-0.2455666793377468,-0.1591143974244244,-0.2092521919354038,-0.12275124780558404,0.08711829890516476,0.2316111204128914,-0.4589886641869424,-0.19803630868941935,0.008139779427921452,0.05089374359179426,-0.6504453718401153,-0.34737627844780494,-0.05077556345073275,-0.05908925182019339,2
7.275,15.45,7.525,5.3,12.05,26.5,11.575,14.775,419.0,1084.0,501.0,348.0,856.0,1952.0,830.0,974.0,18.0,21.0,19.0,18.0,19.0,20.0,24.0,18.0,-0.32581731791926305,-0.14719070640713372,-0.304250808119552,-0.16834614319768393,-0.6602390162148414,-0.21753560734259803,-0.3037315141250807,-0.280915691762406,-0.49740866847886983,-0.32622846526274873,-0.3120963088653073,-0.562239007026736,-0.49750209843030374,-0.2667414400432476,-0.3852315873876047,-0.56924243691403,-0.6428314632070516,-0.3787484353567353,-0.06474564270939406,-0.1264378138494755,-0.7265334218116305,-0.48560672349829237,-0.37265247064364143,-0.07490720534539023,-0.44767135997613255,0.03988938626816089,0.11308804468913648,-0.1311785007415516,-0.5252345178932271,-0.11886505600665623,-0.1444030742671383,0.038441436519619884,2
8.15,15.525,7.125,7.05,12.625,40.325,12.55,13.85,528.0,977.0,456.0,436.0,783.0,2799.0,912.0,906.0,14.0,15.0,15.0,19.0,18.0,19.0,21.0,20.0,-0.21694727893592974,-0.15704097281865095,-0.25660193390166613,-0.3391472375311225,-0.4048780881046286,-0.11574734261832018,-0.3041845842842173,-0.2497991277691875,-0.38824712309268256,-0.4162598958363312,-0.170548514292653,-0.18822498000631205,-0.3736976948416322,-0.3010711742611087,-0.023441842179736445,-0.22591651249276673,-0.15585418490959757,-0.02827517749408057,0.10973984310315013,-0.367352200703033,-0.7465342705155306,-0.4915187819240874,-0.5024366923791569,-0.29404172728101213,-0.5868028168334026,0.09812409861055016,0.1377735061459966,-0.07727591397244626,-0.4137834715808697,-0.09133750459204627,0.09165396508060818,-0.23446701793739488,2
14.175,17.175,7.675,7.275,13.35,36.0,12.2,11.825,918.0,1064.0,469.0,423.0,703.0,2441.0,848.0,883.0,18.0,18.0,15.0,15.0,12.0,17.0,21.0,20.0,-0.3398758481374752,-0.13654135462076422,-0.1573958140859565,-0.0435698123648776,-0.2828224933344708,-0.06898560582363586,-0.30444186033791637,-0.11260107228295552,-0.2930161402648981,-0.506983931654853,-0.03165469413735863,-0.30966717472230076,-0.40743642901230676,-0.49408179318780004,-0.40155021851841494,-0.21839297058983026,-0.1382835120028993,-0.16603662254561513,-0.2943379833241039,-0.1547699608440831,-0.7452283224022769,-0.3420480619404224,-0.0481071663517789,-0.09422106289831152,-0.5413407499717309,0.038466673718253956,0.15962198053817964,-0.05755143287214477,-0.6424985015091349,-0.39959100169536815,-0.2117433140669221,-0.15649717572506744,2
14.25,14.175,6.55,6.65,15.15,31.35,14.125,10.6,933.0,832.0,338.0,405.0,871.0,2142.0,906.0,726.0,20.0,17.0,12.0,14.0,19.0,18.0,18.0,16.0,-0.2883467643211454,-0.06787965292948216,-0.23216791273662055,0.22248194403023897,-0.33037038522526097,-0.3347135584209067,-0.4603591479192721,-0.34230269932851315,-0.21119750506101534,-0.38245696164694765,-0.27454541649843606,-0.528726152598111,-0.40121311222348666,-0.266977461107213,-0.4561443430767603,-0.4096686419628729,-0.3374868639667022,-0.34682833325321655,-0.2766930438342558,-0.09679134170126458,-0.5049727995193798,-0.5416354150317373,-0.2628975863655689,-0.3699531793997615,-0.3311883443110799,-0.2881183326092258,-0.20294672713083914,-0.5376764645347186,-0.3472362204129806,-0.020632812333025295,-0.45302011292086164,-0.30685851757374866,2
8.15,12.025,5.775,6.55,16.55,39.6,13.55,11.45,612.0,777.0,368.0,404.0,1187.0,2643.0,956.0,733.0,21.0,18.0,16.0,20.0,22.0,19.0,17.0,18.0,-0.6465603327616445,-0.19986968234382918,-0.382697458463634,-0.3133596641549395,-0.467749104664111,-0.24462741288059603,-0.50379533358318,-0.321841877615804,-0.4156908935022466,-0.501206956993892,-0.09790857838314804,-0.18914835779418576,-0.30954046770118065,-0.19951070242274688,-0.012968668535802143,-0.026045624657943568,-0.7653915610454829,-0.3655893756090855,-0.25175964391406264,-0.07429931565644246,-0.748737177336018,-0.6148774250699953,-0.22186755399406097,-0.3067872885337435,-0.5281929272793662,-0.16121753670773636,-0.0924020716544877,-0.19266653716101062,-0.5188667673549788,-0.2704848939391422,-0.37515795482920306,-0.23706467477286425,2
6.75,14.325,5.5,5.875,20.025,35.0,12.9,14.225,412.0,980.0,337.0,355.0,1323.0,2338.0,821.0,968.0,14.0,23.0,16.0,14.0,22.0,21.0,17.0,21.0,-0.3219839754064994,0.0009871353210438518,0.0973034001485641,-0.20558858954619333,-0.44578642911047817,-0.694493701402212,-0.2844170530137773,-0.6909875282567226,-0.29734808504779875,-0.19697614529759633,-0.08799568615203097,-0.4984827118378012,-0.3058358667388174,-0.3534396960543728,-0.19396275373624947,-0.5590481161942142,-0.7187122419874801,-0.24676124331160262,-0.16900224435154793,-0.07787249513267809,-0.40158356458909633,0.21896507288602216,0.01513784427520182,-0.029636259636229255,-0.5176189275604822,-0.299300177899311,-0.11293173639220998,-0.010969543259781328,-0.5939035705186138,-0.05131992403036012,-0.1612359904434516,-0.11914296130063656,2
8.25,16.275,6.375,5.9,16.525,29.3,10.975,13.9,535.0,1104.0,384.0,342.0,1015.0,1833.0,725.0,902.0,17.0,18.0,16.0,16.0,13.0,16.0,21.0,16.0,-0.27032548223935715,-0.1985386624476426,-0.14987178656517616,-0.29399879829611986,-0.8519477060076356,-0.949850978095265,-0.4729646828108624,-0.3408661752166342,-0.3070053063753271,0.07334078738008265,-0.39141363558110326,-0.288939653538308,-0.08125817195962044,-0.3767179238938338,-0.07537909841033359,-0.2812443389301158,-0.4195914606576653,-0.3638229090334091,-0.30718927431450604,-0.2914537988744471,-0.4957889679977473,-0.3776230597456327,-0.42000305198235827,-0.1706575387883742,-0.5558493767745631,-0.38048441751302925,-0.2518106333518886,-0.14964874507806905,-0.6784077216785667,-0.13604749486506273,0.03307949694833487,0.009261551978303122,2
9.35,14.25,5.55,4.375,14.7,26.875,9.625,9.525,622.0,932.0,325.0,259.0,1000.0,1677.0,622.0,562.0,22.0,20.0,17.0,19.0,23.0,16.0,13.0,15.0,-0.31719303434501267,0.01932969806782745,-0.0056766746405106285,-0.1430145545699368,-0.585528495075513,-0.3064115392928154,-0.40275240279631663,-0.2466289543348341,-0.1647831097151897,-0.05058670577620569,-0.19008574433597583,0.13007575387775783,-0.3163203594410444,-0.36118740971024765,-0.11538289486626892,-0.08002991555233509,-0.4605239796069104,-0.2595088422615489,-0.19106454613555032,-0.1869402171909773,-0.5002211960774303,-0.40069196394611123,0.017091916724764507,-0.06738662848247007,-0.5123477090209664,-0.24366917048857914,-0.04675708961211433,0.039957761805363076,-0.23011023206248568,-0.0023834282377290248,0.03561042214495647,-0.07930147933314485,2
7.775,12.825,5.075,4.275,14.7,37.35,10.5,12.725,500.0,833.0,315.0,286.0,958.0,2317.0,644.0,848.0,18.0,16.0,12.0,18.0,17.0,18.0,18.0,21.0,-0.5456693765506844,-0.34121277240232767,-0.35294346777867,-0.1309581576984496,-0.7141968191310839,-0.6439491354325061,-0.6261873274904785,-0.46338959004605035,-0.2439489011623178,-0.07548218366428677,-0.21280076459346783,-0.09757808545335764,-0.4394611059084262,-0.18215258220892133,-0.060436082251300156,-0.1670735107804092,-0.3603707068457833,-0.12203659484910885,-0.08699218302467542,-0.2719700663329548,-0.2388607937784773,-0.024882805157241856,0.09192676782212221,-0.3543032113873406,-0.25209396199158096,-0.013583091560156456,-0.07349935518649615,-0.09936664787369807,-0.4913789944529327,-0.1933355626949864,0.002927509688858174,-0.12157064868625526,2
8.65,10.5,4.275,4.725,15.075,35.45,11.075,13.1,566.0,617.0,232.0,280.0,870.0,2025.0,651.0,836.0,18.0,18.0,15.0,17.0,16.0,16.0,18.0,21.0,-0.4166126993774898,-0.2303609103065757,-0.0030855430540481068,-0.33986963826645106,-0.35651519160397016,-0.33244905606047087,-0.30739750066590826,-0.43206786545530007,-0.09231327419781349,-0.1995484841259487,-0.1205685476586145,-0.45244341299581825,-0.28552494400597866,-0.2838155480925855,-0.15747640452876405,-0.2899435104912054,-0.18876576168053627,-0.39603922603139363,-0.0889939010878032,-0.24405946934180905,-0.19453181351685944,-0.26002472833802065,0.08252385924883503,-0.1914257181372419,-0.3324416807297164,-0.20042799364089217,-0.01416737053027797,-0.036035980497884985,-0.29225579767480947,-0.04650593944971204,-0.021590419679062084,-0.065924887062761,2
9.95,14.675,5.35,5.525,16.25,32.975,9.0,10.45,689.0,1075.0,344.0,332.0,953.0,2264.0,579.0,720.0,23.0,23.0,19.0,17.0,17.0,21.0,17.0,22.0,-0.6157505772481688,-0.4650787346312092,-0.15238324654185498,-0.3564224228845105,-0.5979843361580542,-0.16771999751395755,-0.16700511143868937,-0.4009003975353761,-0.6066169935278951,-0.1473328134248401,0.1243697669068813,-0.12160362708727963,-0.4604455021262038,-0.21624480130956897,-0.17311420828352347,0.07371430879835972,-0.2671535808649776,-0.2732449939450823,-0.3581793253492474,-0.0952748629379459,-0.4966561142717678,-0.15541933229663618,-0.07092914140064997,-0.17436248546383287,-0.6228330082876332,-0.5399889184067351,-0.3663215310383746,-0.2569178161213988,-0.3444690614952732,-0.09370295037814692,-0.0812796901203324,-0.4983433311345908,2
9.35,16.025,6.725,5.8,14.8,27.575,8.3,10.65,539.0,1028.0,408.0,360.0,996.0,1951.0,572.0,697.0,15.0,17.0,15.0,15.0,18.0,21.0,19.0,12.0,-0.12722438294780578,-0.08166068839365138,-0.1767517618535591,-0.21235918950748187,-0.46436610924000415,-0.3148084109686665,-0.256865587523596,-0.2551996767926019,-0.5213813441558058,-0.30151150645297825,-0.17929123358631222,-0.040764016693301805,-0.40997160804697275,-0.20350978676942644,-0.2626136550986803,0.07495553646081497,-0.5060434650514936,-0.3086280427267663,-0.395712316149108,-0.40346611745562994,-0.6448166563328768,-0.14873232430054764,0.038430279468403904,-0.02263995229728218,-0.7031393898311149,-0.3712557532069899,-0.2349045707096903,-0.22437406447604163,-0.15455659283525808,-0.07259227528213583,0.14949248613649077,-0.38186588544503713,2
8.375,11.05,6.0,6.95,10.175,27.475,9.6,11.9,565.0,738.0,343.0,376.0,606.0,1694.0,604.0,683.0,19.0,18.0,16.0,18.0,17.0,14.0,18.0,14.0,-0.5163469993033547,-0.2918607628808772,0.039080766654200606,0.1121294503532273,-0.5738559354806883,-0.39820490299368067,-0.4667341966724486,-0.08012862570588415,-0.1901568152991511,-0.17118217645961184,-0.1477008184919172,0.034015077756101346,-0.10462051833809863,-0.27080927070849875,-0.27769361127960274,-0.16022948408823523,-0.17177079474129153,-0.0040370057049967925,0.024846788365986583,-0.06516191863991537,-0.3474011902680017,-0.3550257767353642,-0.14438310542923946,-0.2246816468641338,-0.28476290491896133,0.04541141794831469,-0.1945742995200849,-0.3008504705735371,-0.09102384756809659,-0.11140317777833687,-0.19789947948734252,0.04309630791703678,2
8.525,14.4,6.1,7.45,11.225,22.125,9.85,9.925,584.0,968.0,381.0,495.0,739.0,1253.0,656.0,507.0,20.0,17.0,19.0,22.0,19.0,14.0,20.0,11.0,-0.4186455293916573,-0.24702870038635463,-0.16676290196565274,0.05633626425952127,-0.6297373626583617,-0.3177891548480055,0.02768017933604133,0.02067500052497856,-0.42444478755835735,-0.41207899073186327,-0.2690867047493415,-0.39908775419343223,-0.488114078073404,-0.40669423579965897,-0.33629602752277177,-0.38513324394332626,-0.23795475849671016,-0.02903394188356385,0.09525756055307408,-0.03270821211355912,-0.22736986251171334,-0.1840774012335574,-0.2441364663043777,-0.3068740970911028,-0.4824009151920928,-0.17489179042844222,-0.2883524213117556,-0.3102866949132679,-0.06772504062452243,-0.10477355662214001,-0.14333378544100306,-0.08945416290639426,2
7.4,13.15,5.2,6.475,12.4,26.05,10.275,10.925,473.0,805.0,313.0,381.0,859.0,1684.0,598.0,675.0,13.0,13.0,14.0,13.0,18.0,15.0,16.0,19.0,-0.18751321003862492,0.003605878048842337,-0.26821908962415175,-0.24379178337526827,-0.3930881025463753,-0.3753752281664481,-0.3520808130138561,-0.37084269576709056,-0.6855037318516155,-0.6558416717069466,-0.4162202540661748,-0.33135030206805516,-0.3484936170694379,-0.599268152328595,-0.37269159651548583,-0.4366285068709857,-0.41399941165073917,-0.46896966039455906,-0.41566774759423675,-0.24290169311687862,-0.4337684579199312,-0.1373507273008643,-0.2642408489348056,-0.447645580019746,-0.32178712597022213,-0.4925458035024315,-0.34637270192985103,-0.5736075684905678,-0.24195333888875634,-0.13187761932442515,-0.08613855501742586,-0.14761532050453458,2
6.9,9.9,3.05,4.35,9.1,16.1,6.85,8.8,446.0,597.0,184.0,230.0,522.0,842.0,398.0,556.0,14.0,17.0,14.0,14.0,16.0,12.0,15.0,17.0,-0.30215932413039537,-0.3327919787266957,-0.085130755862197,-0.18960474205402555,-0.26928050473668225,-0.3931792840235854,-0.27637997408772996,-0.22755282973867128,-0.21024144623447297,-0.2339485637474793,0.2126273107730734,-0.00871567375693278,-0.12660043201293267,-0.3729201304555795,0.11300815640688573,-0.053555242106412645,0.05560368391714895,-0.05496713431503561,-0.1547422569071371,-0.1358259609402551,-0.08127706105190469,-0.16550605622382936,0.04009649068447638,-0.10726173568066968,-0.3729375263789276,-0.4779842752351523,-0.2726665740769451,-0.3657275428250338,-0.5195986176389515,-0.47984131107462147,-0.3800132920568892,-0.3333606747785815,2
7.325,9.05,4.775,4.625,12.375,17.175,7.875,10.875,435.0,597.0,282.0,267.0,828.0,1091.0,507.0,759.0,16.0,19.0,13.0,15.0,17.0,19.0,15.0,21.0,-0.07899142135983737,-0.06196627526366755,-0.22399393478803084,-0.10894567040649339,-0.21202700741661445,-0.16604938826042082,-0.435444339718866,-0.07863699049402902,-0.528574844310469,-0.37855992221004714,-0.5276847628153237,-0.557471487841421,-0.24281136243066348,-0.320204831788368,-0.28906797161917686,-0.510343406062376,-0.45486526625888263,-0.03494248036349914,-0.11855454681460549,-0.17728245783568522,-0.2621975273450776,-0.0026209612731487772,0.010142890921363466,0.0465111826290811,-0.3476963349484425,-0.12736904755184728,-0.20045118823960328,-0.4189164366185059,-0.5073271852522088,0.03265795046763789,0.1549992343855502,-0.06812954307133376,2
7.525,8.525,3.875,4.9,10.875,26.0,6.525,11.05,511.0,550.0,220.0,281.0,709.0,1726.0,382.0,674.0,19.0,17.0,13.0,13.0,24.0,21.0,15.0,15.0,-0.4218878859987524,-0.11009844570613057,0.022244969004071954,0.13454847891781016,-0.37139097891924266,-0.17286580062848356,-0.2893040857385938,-0.11009296011938174,-0.5411287137531131,-0.4654357934631737,-0.6257135343463358,-0.3661015409530531,-0.15934155068542508,-0.5847604185019517,-0.3069903359528789,-0.39193932837490203,-0.35052091296794696,-0.08527690243542506,-0.25264502038232906,-0.29363403166394386,-0.5017484790362956,-0.3227939458700429,-0.06710001470525295,-0.07870642026163745,-0.2899495787677884,-0.49014900711295145,-0.195408578796524,-0.23113363927617525,-0.37983617296299943,-0.303603607017191,-0.3231095379677806,-0.2754277529633352,2
7.35,11.05,4.95,4.5,12.025,22.95,6.9,13.075,445.0,676.0,317.0,271.0,719.0,1466.0,422.0,887.0,15.0,15.0,20.0,21.0,15.0,16.0,17.0,19.0,-0.18765533837827214,-0.049812258888084805,-0.09515257211909353,0.014969136141212515,-0.6748785758538696,-0.5741901642676513,-0.4826269409742584,-0.16253489246676953,-0.7644051157157671,-0.8104482124619546,-0.5343641800008974,-0.33405363517593206,-0.4033245218448313,-0.45740949394319874,-0.25211640376952,0.03322616024680809,-0.32270964496392446,-0.25033401819105483,-0.43542079628019176,-0.2041513789237378,-0.40808297494138535,-0.37013948784427825,-0.012686213626578563,0.03343976655780892,-0.59952704283385,-0.6116685738510124,-0.3875517901316308,-0.28854025011923584,-0.34939185469257783,-0.30764038674295363,-0.14218949650690405,-0.3725706817675607,2
7.475,12.775,4.8,4.925,12.225,23.1,5.95,10.95,469.0,903.0,314.0,295.0,711.0,1567.0,348.0,750.0,16.0,19.0,17.0,16.0,16.0,17.0,15.0,17.0,-0.3747591123343198,0.1129364753320794,0.19598897300697574,-0.02217893803063601,-0.6206873102016015,-0.41514307105794457,-0.18857711237285157,-0.16959002229632358,-0.7587952220747238,-0.7323338793130536,-0.5869960661289135,-0.5019289338413563,-0.2439305499783447,-0.2635775098433362,-0.1395689594962365,-0.2045062217766712,-0.20308777394164246,-0.2108021680188614,-0.20959637765106764,-0.15344159617304415,-0.5532688093373979,-0.345281271172458,-0.38687718427540446,-0.2464783332220085,-0.29052906121632516,-0.14876919970271504,-0.3281902598853934,-0.42216365768723263,-0.5408166666458413,-0.15357306945775434,-0.3074428784000981,-0.35990890509755874,2
6.775,8.4,5.125,5.675,13.475,28.95,6.975,9.975,464.0,551.0,263.0,281.0,847.0,1756.0,392.0,626.0,20.0,18.0,11.0,12.0,18.0,17.0,16.0,17.0,-0.7070376072791469,-0.26329801185717977,-0.03593068700038695,0.13381963566431068,-0.12251774937587748,-0.6616070089366731,-0.06163732879250585,-0.6056072170623193,-0.3994208023147002,-0.5810923332719679,-0.4536459295833842,-0.46716438419501377,-0.05819990068364141,-0.5670107317881652,-0.2102089902469237,-0.44768486686285747,-0.4119590328270892,-0.08032091089081063,0.17801132212429877,-0.03837403984460344,-0.3316308834006322,-0.2588365797210767,-0.1401140424678034,-0.25505842879099655,-0.23473560547724992,-0.3558636127742655,-0.0503699578793848,-0.3103920667175738,-0.4359142443448411,-0.17296117627756497,-0.05911439164742203,0.11440769077657213,2
10.1,16.0,4.825,5.3,12.4,25.225,7.375,10.8,599.0,885.0,277.0,308.0,808.0,1722.0,488.0,740.0,18.0,12.0,15.0,14.0,16.0,20.0,20.0,20.0,-0.04328159860473073,-0.2925581224831665,0.1252432122503393,-0.06541740012113632,-0.06761499302491383,-0.19694901503935383,-0.30042499603393474,-0.2401169706162994,-0.2935408467523258,-0.3197611793851628,-0.41006001430198247,-0.4653015673720444,-0.20968671277418766,-0.431561004062745,-0.2494318317222934,-0.3725316654773413,-0.5128039982894897,-0.13176657642967463,-0.23041037010964718,-0.2534233658316665,-0.5395696926014953,-0.2771108304415558,-0.0733131629456415,-0.32582955203525243,-0.6681910807289243,-0.6094385327198978,-0.40180340449610247,-0.35995766290750103,-0.8236144558189644,-0.6290738949490038,-0.6209075543696033,-0.16610125058648814,2
7.275,12.25,5.225,4.475,10.85,21.775,6.975,10.925,452.0,769.0,361.0,276.0,686.0,1422.0,372.0,810.0,18.0,16.0,20.0,16.0,14.0,15.0,13.0,21.0,-0.019310768174670322,-0.2381553042857877,0.042686157771316846,-0.06969584885016679,-0.11875959847864347,-0.02585252571677094,0.08950773597504803,-0.13862861894102152,-0.741162533845297,-0.3322229541547844,-0.20609564134433644,-0.2524084425747181,-0.492798994094619,-0.5093249237264075,-0.3541759333117597,-0.4854634415031595,-0.40635543325180185,0.05069950523840382,0.01607055571165412,-0.01313100001876095,-0.46231022723671766,0.09493741406225426,0.16899459339585826,-0.19434063090217943,-0.35850468113021117,-0.3263970316568748,-0.2971071816537478,-0.4408010244249131,-0.7880282649399525,-0.5483251161362618,-0.4994718796953951,-0.26397477296259264,2
7.175,16.2,5.425,5.325,7.775,18.9,6.475,8.925,442.0,1037.0,322.0,319.0,523.0,1123.0,456.0,483.0,15.0,22.0,13.0,12.0,18.0,20.0,20.0,12.0,-0.3413739150012673,-0.21937424409739004,-0.2797821409059123,0.2140109347073695,-0.40406710448890626,-0.12254460158489999,-0.17422731479084824,-0.24990694375391784,-0.36466872398387845,-0.09612587966477192,-0.12706782233745642,-0.007390564139296298,-0.603934055700306,-0.6344842062265543,-0.5997104564699394,-0.6786114091654281,-0.48694451111072906,-0.32288917808962087,-0.1899467464643403,-0.19156310138082097,-0.2959631973754647,-0.3757490941200221,-0.10908218294153912,-0.21642447607038076,-0.6023684284507046,-0.5576111868031189,-0.10962628919074933,-0.12694711847959153,-0.23561698413362714,-0.16040400029432336,-0.22890576862516496,-0.17461488967657052,2
6.625,14.65,3.675,3.7,11.0,19.225,6.325,7.575,391.0,894.0,227.0,201.0,696.0,1241.0,445.0,395.0,13.0,17.0,16.0,16.0,20.0,17.0,17.0,11.0,0.1145928208804492,-0.3558332970684416,0.042471216192187695,-0.2475972102254796,-0.4750040591665407,-0.5425831758045899,-0.30722257979235934,-0.4374165366249409,-0.4597155294042306,-0.35251064229963947,-0.2228854884078756,0.028423305729320877,0.004172436651907334,-0.4661238080939316,-0.009715803880435131,-0.30495109354467786,-0.42879446575833163,-0.40820677670016464,-0.09807355937608557,-0.4586087712227084,-0.4582466062521314,-0.5117437856206106,-0.285988990373819,-0.3235737674274156,-0.7177026431475261,-0.5683876290114953,-0.16447143017425836,-0.026998361908701213,0.05888803718829934,-0.2391541312449744,-0.07492906624390915,-0.260232339189542,2
9.4,17.275,5.575,4.025,14.5,18.8,6.8,9.425,441.0,1130.0,373.0,228.0,953.0,1179.0,418.0,604.0,13.0,19.0,17.0,12.0,24.0,17.0,19.0,18.0,0.1591367523405337,-0.5271234280229857,-0.23476437634487468,-0.1230235787976641,-0.5960999665172186,-0.6745932935467251,-0.4363664217773495,-0.44894157300905774,-0.6903045530642512,-0.441102808884206,-0.3583948098590359,-0.1656889906836196,-0.37671801906011054,-0.4232683956612253,-0.39065963416483274,-0.3060361212052795,-0.579363353453309,-0.16969234379602358,-0.300586485818446,-0.3762166261905789,-0.3061020003302715,-0.3382251115358294,-0.2009287669668646,-0.27639724831459983,-0.45707013677240443,-0.4525189877262355,-0.21347049144439625,-0.3270215235143927,-0.5407538275028615,-0.43344760065135646,-0.34599596973439967,-0.32890823465944735,2
8.7,13.6,5.075,4.675,11.15,18.075,6.55,10.3,606.0,903.0,322.0,287.0,747.0,1089.0,438.0,703.0,20.0,14.0,20.0,16.0,18.0,12.0,19.0,20.0,-0.437801044817584,-0.03617071361313816,-0.054034180115790684,-0.19619788595194865,-0.5093960964484864,0.08237583731507489,-0.0321005909620692,-0.08199406141881192,-0.5000877488680668,-0.4723756396603189,-0.279347079459504,-0.1330701685928816,-0.4043123441227523,-0.31354073656595244,-0.28993204622681756,-0.35619987139768183,-0.4717844132034763,-0.03875562426386792,-0.10483913721842375,0.11976574775760315,-0.3416242355119432,-0.16287155565119513,-0.2822224807579274,0.03305387218194154,-0.3507041459545952,-0.12422379240863445,-0.008156994362916241,-0.13365848019637172,-0.5603982402928476,-0.3512462583963955,-0.22124334073839683,-0.3980578096978362,2
7.35,10.8,4.925,4.3,8.8,19.5,4.9,9.15,501.0,625.0,321.0,263.0,543.0,1240.0,292.0,586.0,15.0,15.0,19.0,11.0,19.0,21.0,14.0,17.0,-0.41784663082703416,-0.1582207236684982,0.009574616704154378,-0.14650640996865294,-0.25614177399707266,-0.45109550535427184,-0.22082954705824864,-0.27685339817626126,-0.6468580044191059,-0.5029485324017035,-0.2221961322543021,-0.1972506209414404,-0.380007849895928,-0.40391242364167945,-0.368949679634055,-0.38152927212036863,-0.29139539683575333,-0.13619738636509723,-0.32370309000529524,-0.06291664896964118,-0.3887435215151505,-0.009327621508519067,-0.13137223548467203,-0.06096420022805581,-0.44949711887514887,-0.3387593691301962,-0.249505171822474,-0.24812315833931586,-0.4822197444778858,-0.3638557974404361,0.026250433227891137,-0.134446915168277,2
5.925,10.2,3.25,3.65,9.175,21.9,4.7,5.325,418.0,706.0,191.0,235.0,527.0,1270.0,304.0,326.0,18.0,18.0,15.0,13.0,12.0,13.0,17.0,17.0,-0.40112916122797887,0.006908945182253733,0.13814683475926925,0.012919699851268295,-0.6958356409492571,-0.46068087419738657,-0.2373547908100501,0.13013160164048848,-0.29540994211997973,-0.4631298633121593,-0.27356157829598804,-0.062075017752094036,-0.3605544480808543,-0.22044250864443363,-0.4692123714694608,-0.26117346279376746,-0.11509843672525416,-0.2896836691596281,-0.2717354593042986,-0.30064853297667316,-0.09847707032059724,-0.20161995145941708,-0.3507037397000194,0.014603622176310515,-0.7781904058655021,-0.653880250221055,-0.6503122906417473,-0.2583685113026487,-0.46662242269895265,-0.28281884063595847,-0.39667137222534915,-0.360541264901823,2
4.725,7.875,3.425,3.525,8.525,11.9,3.825,4.625,294.0,474.0,204.0,203.0,564.0,723.0,255.0,289.0,13.0,17.0,17.0,17.0,19.0,19.0,20.0,14.0,-0.2151983763272871,-0.15157882559900315,-0.450667105289245,-0.34067273026481976,-0.067053048327668,-0.11683192036161937,-0.29830601425111736,0.14818507141618362,-0.39205469750098276,-0.44298473038989145,-0.05801569200251168,0.023700278860904377,-0.17964263005823713,-0.20875489132166397,-0.22472747753247352,-0.24809261392190646,-0.38829013057633555,-0.06633890213906637,-0.2057524651681054,-0.3242972683420138,-0.010897972173949692,0.21920855872668393,-0.21682138353453909,-0.14600779919464194,-0.8859413481574363,-0.3905544107623166,-0.12278518370416398,-0.08594160136083218,-0.5270940597133541,-0.2501981458211931,-0.3024438998362231,-0.2617856687837939,2
7.55,12.125,5.1,4.4,7.775,12.675,3.025,5.0,503.0,784.0,362.0,296.0,543.0,873.0,198.0,319.0,14.0,17.0,17.0,19.0,18.0,21.0,20.0,12.0,-0.16618131576871428,0.04839279993280561,-0.26913472889112255,-0.12099714523239696,-0.4366214607355076,-0.27864546514505795,-0.46827094350923665,-0.4191099829621903,-0.8714767816226152,-0.32499338151017626,-0.15090624719816528,-0.15614494978010277,-0.5690979667540002,-0.3360109050704036,-0.045840933563273976,-0.40431150134516824,-0.4577234636265095,-0.16940340016992647,-0.2973700307541967,-0.30635385812359944,-0.5124912361236371,0.03013564818538078,-0.01693372375940053,-0.33970949965475705,-0.38235337092970967,0.12218053474601182,0.11487951534767721,-0.2951321925248726,-0.13350404017883036,-0.13089183422315262,-0.19980704132856253,-0.33371504668608853,2
6.3,9.0,4.6,4.075,11.2,13.65,2.825,4.525,445.0,573.0,295.0,269.0,791.0,892.0,188.0,294.0,17.0,16.0,14.0,15.0,22.0,17.0,15.0,13.0,-0.3108985601093245,0.12125090537074161,-0.19595840039540224,-0.21346296639189635,-0.41158726134228363,-0.32037825760916677,-0.11000506099940559,-0.08841836081535177,-0.7084459672655602,-0.2191983950845701,-0.22388068933915511,-0.22793172906740017,-0.45895786693665297,-0.3529286897403154,-0.026745969371545022,-0.36733819580858934,-0.5535662267940228,-0.13283426163246434,0.06172321455039111,-0.05402048974221494,-0.40638165203852644,-0.14950924604087923,-0.11577351882402731,-0.146664381102594,-0.35890874925090677,0.013380381419709032,-0.20528279891111714,-0.23745631518281068,-0.14244402626289723,-0.061049164653610065,-0.2294364625809751,-0.2362741417727503,2
8.15,11.225,3.575,3.35,8.55,13.875,2.95,7.05,544.0,627.0,254.0,222.0,583.0,853.0,170.0,454.0,19.0,13.0,19.0,15.0,19.0,17.0,15.0,16.0,-0.6523118251451944,-0.5236734663697371,0.05051540841003365,-0.18175876807322267,-0.27110073354603137,-0.34794528984705725,-0.2086224392700333,-0.406650267348908,-0.5187104359503207,-0.16883962357525203,-0.22272279040268542,-0.4167610139115597,-0.6032997118527019,-0.6510562254237433,-0.4145589071294052,-0.4682056327086009,-0.31604928865594195,-0.1307721093559857,-0.2494822569338534,-0.049631170289839176,-0.3509378030547045,-0.3767510093732429,-0.3559471323757088,-0.1556090015447516,-0.42418860980046597,-0.2904622426798209,-0.47861764354377206,-0.23463932820027786,-0.9835329980563388,-0.8139409777049577,-0.953874220502419,-0.6029669117876638,2
10.175,9.65,3.5,2.525,5.95,11.3,3.35,6.65,676.0,586.0,217.0,155.0,375.0,698.0,196.0,465.0,19.0,20.0,14.0,12.0,17.0,15.0,17.0,18.0,-0.49070528945758185,-0.2558904969633268,0.13841809996374385,0.007247630476626957,-0.2552225272456606,-0.09031636664119183,-0.33212619297824747,-0.2312388111120605,-0.32398371170920104,-0.1472084960912375,-0.39116038008035875,-0.27495798375550395,-0.3339930814827131,-0.32629586821722895,-0.34799515526486824,-0.06465467971026155,-0.13960272082289818,-0.20141861759186674,-0.24961715348326305,-0.1423429728732747,-0.5575477463779995,-0.45390493402985893,-0.6265874600692067,-0.4155753334356665,-0.4658006629774852,-0.21810099720077533,-0.3073324677942893,-0.23092067647544798,-0.6791054145128544,-0.23599417616426405,-0.17199838801435083,-0.2912752138901612,2
6.75,8.65,3.45,3.05,6.85,11.325,3.0,6.4,413.0,574.0,205.0,176.0,454.0,756.0,172.0,417.0,18.0,17.0,18.0,15.0,19.0,16.0,18.0,15.0,-0.3833583283295577,-0.03425708938252062,-0.2891293983623409,-0.40023885375678514,-0.2635429955626924,-0.062227190754918206,-0.38875239593141764,-0.11319236904762935,-0.27740670346363516,-0.06400475966440879,-0.31214069109103815,-0.15830728658496446,-0.28267273026481843,-0.20405705949310443,-0.11435408603909061,-0.027401060395234694,-0.3484182717615369,-0.11391003240922903,-0.16512103390311755,-0.08790545807263905,-0.7136508472274055,-0.2716984082871624,0.05411742319922462,0.007221524946195999,-0.29566348301950357,-0.003908404964099982,0.09403724249169881,-0.033790300303931146,-0.4499030792862203,-0.36205148839583173,-0.19670252271351235,-0.34722315722275504,2
7.85,10.575,3.85,4.225,10.975,19.475,3.55,8.0,437.0,583.0,259.0,276.0,717.0,1325.0,217.0,486.0,12.0,15.0,16.0,22.0,19.0,21.0,17.0,18.0,-0.16899115456413574,-0.2353517612850144,-0.2214577198236571,-0.05130641248624428,-0.1571223528881228,-0.2389985203440545,-0.12190150362530017,-0.11248440305072213,-0.7212123789151489,-0.5446662812098821,-0.3061823919969043,-0.2590825758853927,-0.35231892803290316,-0.0391396209374742,0.05536518734361903,-0.2921409615307974,-0.5704179271331661,-0.30837821648076075,-0.2603589043578866,-0.08451433378587446,-0.5688208983416964,-0.2367753977242014,0.08581051681228297,-0.13730629091723784,-0.16906309741475498,0.029399124923294762,0.035173475994680674,-0.26193233194735416,-0.2227608051095985,-0.11234210819503249,-0.08429015366509689,-0.03828525694504741,2
8.95,10.625,3.6,3.0,10.725,10.925,3.575,7.825,503.0,619.0,234.0,182.0,695.0,718.0,237.0,481.0,14.0,20.0,16.0,13.0,17.0,15.0,17.0,17.0,-0.1540956184823896,-0.2507315448973547,-0.009149472309632067,0.061607053433224174,-0.40180671711496985,-0.21005763829752236,-0.5359416846614794,-0.18684002149196,-0.41006939221206196,-0.12529937536513663,-0.3944638975142378,-0.12144051548800272,-0.390660728619251,-0.10836364982490344,-0.2966767942717142,-0.185050223007258,-0.6276979603834425,-0.28361790248042046,-0.5227909416695682,-0.4775569236353799,-0.5922113232949712,-0.4325929647105838,-0.24794241737832545,-0.08269136718081127,-0.5491918353508857,-0.04740464322331111,0.1695736869934643,-0.021775716069956316,-0.553695785313893,-0.25059531148682407,-0.10276794555839891,-0.2614080142368479,2
7.2,10.6,3.75,2.425,8.475,11.575,3.6,4.925,464.0,710.0,236.0,144.0,532.0,757.0,207.0,332.0,19.0,18.0,18.0,16.0,16.0,18.0,15.0,18.0,-0.4658241879659942,-0.5216430235391714,-0.3144798676719339,-0.46568703064926753,-0.5634801699756375,-0.3684894959746805,-0.19422304469667978,-0.24323871501741795,-0.3646351182543788,-0.22633138979970369,-0.10711281387871865,-0.15812446447633566,-0.43398744644001225,-0.3353582014349717,-0.2608587042445393,-0.17155454785592794,-0.5091882620905217,-0.2259146540293595,-0.1669484072198356,-0.369729254880169,-0.525665307223701,-0.277320067055994,-0.28897873156818854,-0.16967690359767762,-0.39758446644133466,-0.1938650966622282,0.05530286942982275,-0.12172417022766406,-0.48608925554488824,-0.293394029555742,-0.11669152581787784,-0.1796998712949428,2
7.55,11.725,2.95,3.025,8.8,12.2,3.575,6.175,508.0,800.0,183.0,177.0,591.0,746.0,239.0,406.0,22.0,16.0,15.0,16.0,21.0,15.0,17.0,17.0,-0.3061328153543618,-0.23623741210601948,-0.31164966952289797,-0.23790985552263394,-0.53693631288243,-0.3983472157161538,-0.36050446530376445,-0.1629251298625457,-0.4585277028407798,-0.3790028879192209,-0.5363800777943434,-0.3248749294922664,-0.245317450433113,-0.22824432645694973,0.12796019346216275,-0.2580587795679125,-0.5315440951180689,-0.27327179602442225,-0.12036828695433552,-0.17786373373739053,-0.3364144596175694,-0.05927758189464877,-0.41090894398334926,-0.32344182810119054,-0.4157872281553388,-0.04988775314685415,-0.24033784810335687,-0.43443852158681345,-0.452998905609944,-0.15894137741680395,-0.4550434446050976,-0.38459768234771674,2
10.25,8.75,2.975,3.175,8.75,12.95,3.2,7.525,657.0,572.0,162.0,174.0,589.0,817.0,228.0,520.0,16.0,19.0,15.0,14.0,18.0,17.0,15.0,23.0,-0.3715034327258045,-0.21461193878921686,-0.26742246144745163,-0.21327173820406503,-0.550565769841349,-0.3046995666550126,-0.10574672437779718,-0.04310103050812728,-0.39363251165568086,-0.2547096750315217,-0.4723320165807586,-0.461337228359112,-0.19594588926331327,-0.014699912794817369,-0.31747876401610825,-0.1620166845000967,-0.3036811431383945,0.1717757920849356,-0.3247834220963744,-0.25198875665653075,-0.3900777106642371,-0.030444594643400696,-0.2571748416751582,-0.07418769562846675,-0.3645187066297938,0.0272517752830979,-0.35867143826848297,-0.24832649515427443,-0.5920311138228391,-0.2040690558622481,-0.32394306257829203,-0.4476855869938923,2
9.1,9.875,4.0,3.125,8.9,15.475,4.575,7.45,572.0,683.0,260.0,200.0,630.0,1035.0,267.0,541.0,20.0,21.0,16.0,16.0,21.0,18.0,14.0,24.0,-0.5356419976430892,-0.2924184698428068,-0.1869759232918363,-0.3458039095984816,-0.5733565484283125,0.06274726778460846,0.1079734281544113,-0.05837783794175315,-0.7784270924029368,-0.600917427956436,-0.6500679959358677,-0.3407634590564617,-0.22853421492061615,-0.1911250706243764,-0.20822743919793651,-0.175999334076069,-0.6715446535601756,-0.021728374015535762,0.09396166905281635,0.02277604878270623,-0.535863824027186,-0.18953494420364986,-0.06494633690448132,-0.002651410211003254,-0.31805097958224604,-0.13021112442796215,-0.2100237291477682,-0.16231288338904074,-0.6606072585572029,-0.3511209602248856,-0.3936397967240224,-0.3302027623087064,2
10.975,8.6,3.425,3.975,10.4,18.475,4.75,8.7,797.0,581.0,221.0,242.0,725.0,1143.0,270.0,590.0,19.0,21.0,11.0,16.0,22.0,17.0,16.0,18.0,-0.6629130390296152,-0.24869206064006183,-0.009084117460433664,-0.116995302764915,-0.5337733213152941,-0.08564395712243972,0.27178599621541516,0.2711197478000824,-0.3785067138370345,-0.403799538416979,-0.18325236486454177,-0.3645170327224354,-0.39248277270038057,-0.418302393660107,-0.16135078381845688,-0.37750897304278286,-0.7190745526246174,-0.18375870048894577,0.24256311171222694,0.025343739222465286,-0.48760090096539865,-0.5574638109082596,-0.19815884417637444,-0.4334967481158783,-0.3658033576215214,-0.515957821516863,-0.30631579344430127,-0.2742488373514366,-0.47244385935387134,0.1934057251788103,-0.3070016276476004,-0.4710272973840761,2
9.25,9.025,3.025,4.05,11.85,15.925,3.675,6.4,646.0,597.0,194.0,238.0,773.0,1107.0,213.0,377.0,19.0,21.0,16.0,18.0,20.0,18.0,14.0,12.0,-0.5516370685784311,-0.23677266547468234,0.07383654509144631,-0.012544881625982371,-0.22650986074289683,-0.05467239459682202,0.08762706870023074,-0.04486807543906868,-0.39559272492181435,-0.17977611610253155,-0.3459252107483355,-0.2555791627652068,-0.4737668177880919,-0.3065099731190793,-0.1334423403603283,-0.18773474195005435,-0.5650362464062787,-0.3848960447973636,-0.16253581640540177,-0.19207656969967973,-0.507492451758845,-0.6741370668767078,-0.26855315248201084,-0.5272974457920937,-0.38364144602588734,-0.3480780626593822,-0.198935013582078,-0.2807334521580677,-0.23023856476880838,0.016142879937962644,-0.14459116824472507,-0.27553491802338725,2
11.425,7.375,3.1,3.5,11.5,12.725,3.1,7.875,812.0,500.0,168.0,189.0,825.0,771.0,186.0,478.0,21.0,19.0,12.0,13.0,22.0,18.0,16.0,16.0,-0.6661122915948107,0.0986298755950959,0.2614885195121937,0.07286751938736313,-0.5657824815439375,-0.38704679922307594,-0.03129082420223158,-0.03483269387154827,-0.18883308114743677,-0.08677166264605522,-0.023706886609728195,-0.04670117618654344,-0.3501564954302925,-0.08208607013458567,0.06729737240490655,-0.09520229111083117,-0.8153693027413449,-0.5098077810393481,-0.4561706521523966,-0.31937298940689823,-0.1966163532624836,-0.3863595553993354,-0.007545287666283249,-0.20496813705124547,-0.2669948118328973,0.018898587601559585,-0.1243705876468883,-0.464547153689659,-0.09937671823963096,-0.02707840613424023,-0.11822865750583489,0.019402674156189903,2
7.075,8.8,3.45,3.35,7.95,15.275,3.2,8.775,457.0,626.0,211.0,196.0,507.0,995.0,184.0,556.0,16.0,22.0,14.0,13.0,10.0,21.0,15.0,17.0,-0.32551185087526263,0.12677512215396453,0.07441796368742454,-0.11093255520532301,-0.7241559059482178,-0.1733356804529964,-0.12966256799713427,-0.25036922893493185,-0.5469469204805226,-0.28058307089046347,-0.20121714002882715,-0.31434426030980206,-0.4568180821111144,-0.4900566006931144,-0.3289941569010146,-0.3154046491595915,-0.3913446556731825,-0.09564332732184269,-0.35633116823369926,-0.3275242336550048,-0.5276082250533579,-0.1469396319507457,-0.27140895097246526,-0.2074949187036012,-0.29097019849073097,-0.23596815935723037,-0.146954245750914,-0.2257320772524352,-0.318650959736283,-0.1678900590243209,-0.049981390199781275,-0.35818200906821607,2
8.6,7.425,4.425,3.1,7.375,16.025,2.975,8.325,561.0,469.0,274.0,189.0,473.0,1030.0,193.0,507.0,18.0,18.0,17.0,15.0,16.0,16.0,17.0,16.0,-0.3118605545574923,-0.017899036790563552,-0.0403561304503402,-0.24653415860799197,-0.32616517373251236,0.03708719744495711,-0.3361598826469434,-0.2291480800505356,-0.5013697271289957,-0.25819012924568696,-0.36809772060692825,-0.15253918300787828,-0.3484967485016879,-0.22866479550595956,-0.4058225044883457,-0.262796884575793,-0.18293851381814816,0.38922491573595985,-0.2413096226138729,-0.2622098514537081,-0.2621580816827375,-0.1210469456299211,0.019334631481555273,-0.17336819222955904,-0.4678914931326806,-0.2916157253342705,-0.1550627632628674,-0.18501620468767854,-0.46890060242316034,-0.32907340618559044,-0.19836893215388696,-0.2470332838074469,2
9.125,6.4,4.175,3.775,8.025,14.25,4.15,6.5,558.0,402.0,272.0,184.0,501.0,891.0,252.0,396.0,20.0,17.0,15.0,13.0,23.0,15.0,18.0,16.0,-0.17890883931794013,-0.2831780726356322,0.15731154383265858,-0.004121917937583909,-0.22034466594309599,-0.09615038032651203,-0.0006356022865857573,0.04201099608200953,-0.5310432113863031,-0.24640606833285847,-0.3751451181350773,-0.3209857763439627,0.38975401201392273,-0.12762111885537164,-0.41772115436827084,0.056215079400669735,-0.310795694582658,0.10526087242432468,-0.05475296570963673,-0.34546971654779957,-0.2492151775092837,-0.27303964900735006,-0.04434252556934568,-0.2105914348846716,-0.26148376302022713,-0.26318840538204175,0.033628485701212164,-0.043701258996954685,-0.5355316038330874,-0.4814148595867376,-0.019366504837242636,0.05971177108429115,2
9.7,8.9,3.65,4.675,9.65,12.925,4.25,8.25,618.0,471.0,205.0,252.0,698.0,722.0,299.0,553.0,20.0,15.0,9.0,15.0,18.0,12.0,16.0,22.0,-0.3668480862454713,-0.28960863151423305,-0.10641230535062145,-0.4322510103067829,-0.2177487223560178,-0.23273481511855104,-0.42063633237069425,-0.0460267447407239,-0.21045516490764768,-0.09508974821203989,-0.2489273018574641,-0.3380668541256472,-0.07805712686412777,-0.16991506216972665,-0.30858633925093326,-0.28307406691590825,-0.9180326999800843,-0.48491884230413185,-0.003747901115366957,0.08470785727541705,-0.2262086870915542,-0.12450123330314798,-0.20366168123608916,-0.19465990777370304,-0.6430782885937206,-0.2572068349802676,-0.10381187148821523,-0.2225004286587035,-0.5950750787246519,-0.21079720236684232,-0.30505397597040157,-0.3502744558398162,2
9.075,11.275,3.125,3.55,7.1,13.775,3.525,9.325,548.0,688.0,184.0,216.0,415.0,830.0,221.0,658.0,16.0,18.0,14.0,18.0,16.0,14.0,16.0,20.0,-0.17970366491647877,-0.1472221994698377,-0.06953776441432821,-0.2296008886653952,-0.35825372675109707,-0.25646982200327784,-0.2576587025599737,-0.34739376456062243,-0.3121817383466254,-0.4060597039000821,-0.08461832086378632,-0.14717539168327556,-0.5220202657602037,-0.5326965381387112,-0.22326970747440641,-0.33744740861279093,-0.47474134720272637,-0.49973062066480023,-0.41907848071075654,-0.40149723142595684,-0.4121286060844966,-0.3098756039059389,-0.2199027756028595,0.0693459075507527,-0.5305754758124166,-0.5083706279022798,-0.37709970043776114,-0.15306621556523903,-0.5137210891857128,-0.22640218944005408,-0.2896644436004072,-0.5260317763256596,2
10.825,9.9,4.025,2.925,10.075,12.175,3.15,8.125,677.0,662.0,245.0,192.0,628.0,853.0,198.0,532.0,17.0,16.0,19.0,19.0,17.0,19.0,17.0,17.0,-0.3662488085145433,-0.32429367952809035,-0.20987664488682217,-0.377033822499804,-0.16467503287589189,-0.22517633432024994,0.036569297752112026,-0.21793856514065787,-0.23089251488870188,-0.2923833538526391,-0.11495234548242188,-0.2158741637841921,-0.7364262153674718,-0.4902223754496262,-0.034724499789104676,-0.08315629744541636,-0.5065820027862953,-0.4132871726565292,-0.2772761682235669,-0.18650109460991388,-0.5701010955257116,-0.22232935502314338,-0.08786500812264085,-0.21758440025146147,-0.3263216300717376,-0.3546984966591707,-0.11010987253166472,-0.09593732059276525,-0.4488938764511776,-0.3051788379220007,-0.1958499677550221,-0.14878970595752067,2
12.075,10.025,3.3,2.675,13.15,13.0,4.325,9.7,842.0,648.0,201.0,151.0,881.0,781.0,274.0,684.0,16.0,19.0,16.0,14.0,21.0,15.0,17.0,19.0,-0.6422755405397287,-0.4327023082560324,-0.32211070235067263,-0.1563787185668295,-0.36514193192802863,-0.1956175434889454,-0.032851628672310625,0.024586549786357704,-0.293658045634521,-0.17983682997791806,-0.066711059928441,-0.20204538808817665,-0.17140425981764784,-0.2621376390632472,-0.23164555652274693,-0.00011810873805223467,-0.5896417057179953,-0.38189153926533165,-0.2142774787467836,-0.11740089256199772,-0.22129971589516226,-0.1546600344555361,-0.1598460423683028,-0.09594347176306801,-0.42192319720610616,-0.5441525459606268,-0.04744104078025446,-0.21242717267740527,-0.7829408392592354,-0.5376701621881581,-0.21213034760934366,-0.30499238804846296,2
8.475,9.575,3.45,2.875,9.325,16.575,4.2,7.7,563.0,621.0,232.0,163.0,592.0,1019.0,276.0,487.0,19.0,18.0,18.0,15.0,16.0,18.0,16.0,18.0,-0.47178904966610263,-0.3025258462447442,0.038092358504556334,0.028233716768583664,-0.5716513077602712,-0.12259759618732279,-0.431937131778203,-0.3329786424807778,-0.4142789938621599,0.16428573990825984,0.17416788955103443,-0.025220429117800893,-0.34083236260550415,-0.407367052761402,-0.4446300136241954,-0.318597269321983,-0.41319093038241017,-0.33447310999666224,-0.2961008910668248,-0.46083640494591604,-0.5487282366419847,-0.4181178544476946,-0.4502957293755305,-0.24432741416303608,-0.6587672788955928,-0.5747128614214894,-0.3768651370329554,-0.1868894326144041,-0.3308764361121369,-0.07843134775569134,0.15778274589842767,0.06601048492575828,2
7.6,6.825,3.325,3.275,9.75,16.725,4.0,8.05,534.0,380.0,213.0,189.0,651.0,1071.0,242.0,535.0,18.0,19.0,16.0,19.0,19.0,16.0,21.0,15.0,-0.5607164379148715,-0.46259175830035976,-0.445492512023487,-0.20556751423384445,-0.25486652211055183,-0.25370682583012993,-0.07495853145298333,-0.24202287214334886,-0.3798627906172266,-0.05931998159898107,-0.06041602864458415,-0.14887916324783576,-0.3269686079150877,-0.4486891860142147,-0.1787042230149708,-0.33077056855172415,-0.5444673116673839,-0.34143348553989816,0.036818527641931297,-0.09472317614863296,-0.628352797038742,-0.16195780698550102,0.021742642557109754,-0.037995374897298664,-0.23600580223228612,-0.19536175232210012,0.0016193537726336435,-0.31260313129760914,-0.45790336971034495,-0.33008021891446215,-0.13229159451708492,-0.1691602057347831,2
9.6,8.875,3.675,3.8,7.175,12.8,3.15,8.7,609.0,566.0,271.0,244.0,493.0,854.0,195.0,543.0,17.0,17.0,19.0,18.0,20.0,21.0,15.0,15.0,-0.24155111770390164,-0.18946673080433693,-0.08767396591764635,0.11419512709098872,-0.36664867530722317,-0.1801710154513912,-0.10678151259111233,-0.34576140817321127,-0.58205515322906,-0.3483006409835452,-0.30349576089958463,-0.3570249531652315,-0.4802641835609711,-0.24891457274616965,-0.38198644245330043,-0.1760311637963894,-0.5024623614824442,0.052449936719075614,-0.052674675303888065,-0.14624798225229782,-0.4515180210232295,-0.13427123246627232,-0.164599225273685,-0.23070414090088642,-0.32377236854191893,0.09283754361378917,0.10627002890641804,-0.19761457348131686,-0.3792053205560917,-0.34255358902512434,-0.30972399343983603,-0.4339073713690104,2
8.9,9.375,3.725,4.2,11.675,15.575,4.1,8.025,590.0,632.0,272.0,263.0,856.0,1016.0,248.0,462.0,21.0,20.0,16.0,17.0,16.0,16.0,19.0,16.0,-0.26346402182055534,-0.02304415376129162,-0.08153841177394777,-0.06400460322385282,-0.35494334793162946,-0.4135583960829979,-0.12861312152032042,-0.3682596799385733,-0.6725061873849693,-0.40039660552031037,-0.40737188627832754,-0.28808473762554637,-0.364659425330187,-0.3856470251513977,-0.17075953027826857,-0.26662406903351177,-0.522681684917233,-0.24975974171968154,-0.21014538274396224,-0.45000719999773764,-0.5298560759606872,-0.2371414800517691,-0.3862494569561038,-0.2831950491585826,-0.6128018106198356,-0.40030439475723684,-0.37908085345058845,-0.22745744944254537,-0.256844588745108,-0.07062670348981712,-0.14902226411711617,-0.23340595271279435,2
11.35,10.975,4.3,4.1,9.2,14.775,4.125,8.625,763.0,766.0,294.0,254.0,638.0,971.0,249.0,538.0,19.0,18.0,14.0,14.0,18.0,16.0,18.0,18.0,-0.6244090394848723,-0.3074064394293296,-0.1784400728724124,-0.1520452686366688,-0.8363693821677434,-0.6517128032521389,-0.4965453030173751,-0.360195994045309,-0.487719216207402,-0.15628907121047556,-0.12374325437728878,-0.16135486659649764,-0.49807802768509835,-0.4316993950610315,-0.3987696726002167,-0.303679749905455,-0.49765032013025146,-0.14198312020775142,0.0863663017642804,-0.07323309551847491,-0.582713217890483,-0.3693331597398605,-0.25792928070256016,-0.2165148512951445,-0.4769617155748414,-0.5079070729000785,-0.2476718780781642,-0.2017040935967085,-0.11431199911547629,-0.38248459579416,0.23311829062624453,-0.31250383553124406,2
10.825,13.0,4.225,4.05,9.65,16.575,4.15,9.8,698.0,888.0,301.0,265.0,626.0,1034.0,260.0,670.0,13.0,21.0,19.0,13.0,19.0,19.0,15.0,22.0,-0.3570597365876082,0.05340244033237732,-0.03691952541005776,-0.13456710167598296,-0.8956251059010211,-0.7968097351350311,-0.42691287523981325,-0.26304585623700844,-0.5651061813044019,-0.01529257386653547,-0.012842871674518523,-0.11032371185065579,-0.44077027929998835,-0.40412915631478413,-0.4152351912418352,-0.478315783505928,-0.3831751949244401,-0.17262659516367973,-0.12200013254544509,-0.28338947500775885,-0.25063265527389833,-0.028615608258789373,-0.1164790590408592,-0.13079175846666743,-0.413711571287151,-0.3174221206832574,-0.1576016966977361,-0.2939956846809447,-0.5430347094481454,-0.4013797228392467,-0.09461350568595697,-0.03046273714418015,2
12.025,9.85,4.575,4.125,11.525,22.0,3.825,12.225,796.0,609.0,275.0,260.0,750.0,1492.0,233.0,704.0,21.0,18.0,16.0,12.0,21.0,17.0,15.0,15.0,-0.2064137648762426,-0.08271639495881235,-0.0433766211242847,-0.25187114698035523,-0.44376044330473974,-0.10115124616652092,0.09737672251666318,-0.0028306213759164223,-0.5014004238695965,-0.4040595964078547,-0.3720761376810611,-0.4047862017120079,-0.7120919765812933,-0.8234078640281607,-0.6275899164963112,-0.5448172293611812,-0.6044254882326564,-0.6977459689210727,-0.36800461489353475,-0.41340737801739813,-0.6202701578449054,-0.21812171144280978,-0.4015731569200764,-0.3731737476237807,-0.27909090929746233,0.12622455977041017,-0.23072523331056422,-0.23971180787414723,-0.1620125874858725,-0.08563611917481588,0.20027546232836685,-0.09694601829228376,2
15.1,12.675,4.6,5.3,12.025,23.725,5.45,8.825,1035.0,877.0,282.0,305.0,848.0,1598.0,330.0,606.0,19.0,22.0,18.0,16.0,21.0,16.0,18.0,24.0,-0.317606639676099,-0.5487446054948268,-0.14768033931399546,-0.4220117855776854,-0.38127325546772345,-0.0668163626428248,0.16507759925960921,-0.32069230362587325,-0.5249750255257772,-0.3602341152226942,-0.5235451778174813,-0.4665541195113545,-0.49630829128919546,-0.4558283613300478,-0.6461768500204661,-0.4640846732694311,-0.5327736161522076,-0.14844011840321422,-0.13842881935173734,-0.4048034000351929,-0.6279126782480863,-0.43084354689874726,-0.25851605371865854,-0.13985476593829457,-0.44079382501742265,-0.45876511856011976,-0.2507990364543132,-0.2064992022962285,-0.5578006188459204,-0.24939133452307558,-0.12032992396355043,-0.15387374121124733,2
15.4,13.9,6.475,4.6,14.075,19.3,4.75,9.725,929.0,835.0,361.0,277.0,883.0,1217.0,264.0,646.0,16.0,16.0,12.0,17.0,20.0,17.0,13.0,19.0,-0.21470329794976042,-0.26552564861296474,-0.08383524765481648,-0.2480078228889118,-0.10331616760738882,-0.03793284746368574,-0.015984362267086865,-0.2518550376303342,-0.32778394861785276,-0.200522162060261,-0.31327711652774076,-0.33908848880113446,-0.5056535971579174,-0.26888195463365144,-0.5904971663775653,-0.47416009609402243,-0.4065489752476511,-0.30513699558919494,-0.33705912386577824,-0.27623145533528065,-0.33472405951204487,-0.1254176059551321,-0.15369885450464815,0.0038325519982801383,-0.26130691571411235,-0.35689169937876086,-0.12909365196097347,-0.08801608703124976,-0.37400823293292,-0.08424031896626705,-0.14225188977092043,0.002686911542521301,2
14.9,14.525,5.975,4.075,12.875,19.425,4.675,8.975,909.0,927.0,365.0,286.0,872.0,1197.0,317.0,607.0,16.0,20.0,21.0,20.0,18.0,14.0,20.0,22.0,-0.22271461994175515,-0.3705367204833887,0.052324483851077234,-0.23097706427665537,-0.3636105473709055,-0.21548821818396255,-0.11291930505851579,-0.08835338717430974,-0.47770684454619783,-0.13938128806510142,-0.060471118784091775,-0.11187138822352988,-0.50564907017927,-0.20833006948450455,-0.15139660086263676,-0.27984071052824366,-0.4951373495417906,-0.28091487155306477,-0.39625375841228433,-0.27937012040414394,-0.2346456301067348,-0.0829774762946175,0.004956248519994546,-0.41389458220446057,-0.5701290413715893,0.010015075342399284,0.07032138032971391,-0.012377442305444996,-0.4009991467611402,-0.052047186471817906,0.14445529167468302,-0.054520099042556405,2
13.575,16.1,4.35,4.45,11.325,21.025,5.825,6.625,763.0,1012.0,271.0,266.0,772.0,1432.0,431.0,445.0,15.0,17.0,15.0,14.0,19.0,19.0,25.0,17.0,-0.2531539900195822,-0.5955949495640577,-0.240611193960194,-0.25253693741375105,-0.5040476637232643,-0.2177263876860594,-0.4238081793436379,-0.436339433045296,-0.352624746438211,-0.34391636008205767,-0.4650283929110141,-0.08243781243589818,-0.5231069527074399,-0.41414956927025015,-0.6769799083580329,-0.5358615390571583,-0.44633924305604206,-0.2338162741969995,-0.06805932447439779,-0.20536489444580652,-0.3708822229244616,-0.030651207241958363,-0.25019271669099075,-0.24379975804791326,-0.7109145246140496,-0.13381773789154386,-0.40835400461959165,-0.5114784443953394,-0.2016883591555805,0.3055640718661582,-0.06775825077652786,-0.22538432084981597,2
10.825,14.625,4.975,3.85,12.25,22.025,4.3,5.3,775.0,894.0,354.0,254.0,864.0,1464.0,303.0,333.0,18.0,14.0,19.0,18.0,22.0,22.0,14.0,15.0,-0.5119739149988305,-0.1990807552523558,-0.25209754444462495,-0.04894617076444529,-0.456092373435142,-0.27370595801258596,-0.37309771958446825,-0.3286638351096226,-0.49499108169425304,0.0009835415821110008,-0.17723051361747114,-0.1463283017089602,-0.47066068373549297,-0.08986529924740273,-0.2852627981108894,-0.47107713834510506,-0.5799926360490109,-0.33164810515736015,0.008807630953764072,-0.24233388141403403,-0.49042614707750054,-0.24106023839102433,-0.16580763055874992,-0.2755215941325165,-0.6267290706309139,-0.2323263060081284,-0.3743344105217556,-0.23977828234018328,-0.25549494479929363,-0.14221289390601094,-0.0431335718408677,-0.07790880300731756,2
12.775,10.9,5.325,4.7,15.725,22.25,5.425,10.25,942.0,737.0,335.0,249.0,1135.0,1456.0,349.0,724.0,20.0,17.0,13.0,11.0,17.0,20.0,22.0,20.0,-0.38640147843472694,-0.19216513477843758,-0.1907165045482195,-0.4216468693279177,-0.5833686586822145,-0.41268854918779607,-0.4050880530354945,-0.4372607564127769,-0.3638960814157439,-0.007216584175615873,-0.20265273111957388,-0.15115317297347694,-0.3990722965454364,-0.5385627473683559,-0.5438531228567652,-0.570952704271669,-0.5382813690997157,-0.09308405955509742,0.07757586439289803,-0.22080900135952417,-0.5503116025571531,-0.20840921756589417,-0.03523601019925618,-0.1965872640165477,-0.40022433627249693,-0.14819313693369596,-0.31182925586246024,-0.26781393933656744,-0.6441994357781381,-0.18845078956414568,-0.1529793229459122,-0.15593119652527884,2
12.3,8.875,4.825,4.275,16.225,18.95,4.825,10.325,859.0,564.0,255.0,256.0,1101.0,1261.0,345.0,687.0,18.0,18.0,12.0,13.0,19.0,19.0,16.0,14.0,-0.3910354529857478,-0.0037175327097439263,0.013944372786218531,0.18432454550098448,-0.20855449906765702,-0.2178124147265803,-0.270534701704238,-0.13232516110461517,-0.16341788849612265,-0.31729632094358035,-0.16348016639525229,-0.4264711170312506,-0.1638613722172035,-0.33119923307507115,-0.21960491966402462,-0.4003838618211981,-0.7474171153055971,-0.5737349664634501,-0.5788497299497206,-0.3984592016028009,-0.5110588833476986,-0.13768350871615842,-0.5522972115569292,-0.3997106911010435,-0.6817530271688396,-0.22517238704046327,-0.0404951860076585,-0.18155231627216922,-0.5578725976171246,-0.2779169030102792,-0.29272307467004655,-0.39429726600310105,2
12.8,11.725,4.775,4.45,12.85,19.825,4.8,8.575,811.0,751.0,300.0,288.0,871.0,1274.0,297.0,556.0,16.0,19.0,14.0,17.0,19.0,18.0,17.0,16.0,-0.3830000018439296,0.1388049521086627,0.23668440752736636,0.07300722420771297,-0.1973513419681802,-0.03254960818931277,-0.22565708215168404,-0.07627805523063588,-0.578225570256973,-0.3432542738311448,-0.2772271366582541,-0.35399428959221274,-0.6277714976588129,-0.4765258106189163,-0.3899047254137393,-0.4816132370450677,-0.5696157613956143,-0.3989648994566907,-0.44183816400711096,-0.012397486938360411,-0.4104325585949433,-0.2334260240539523,-0.13738479753876182,-0.15638943920222093,-0.4015914944647258,-0.206952877539806,-0.21890968428449883,0.009894075999717209,-0.5512258914262,-0.3679986046642023,-0.5154890169996685,-0.30893503481599366,2
11.925,8.65,5.175,2.675,15.6,18.775,4.575,7.5,677.0,487.0,344.0,168.0,1031.0,1294.0,294.0,521.0,17.0,15.0,16.0,14.0,15.0,19.0,16.0,18.0,-0.1873630455679306,-0.1334086091938056,-0.1360094554765393,-0.07557042301870523,-0.30370466784649197,-0.1814325608891129,-0.3561213108650061,-0.3621665488567693,-0.6017535332561454,-0.35366110969356923,-0.07013207867900578,-0.25689789423225895,-0.37332128484706256,-0.312767664972645,-0.2004747573247412,-0.011013008185167678,-0.5724860847695317,-0.37272869610638426,-0.324599217132551,-0.253616830177606,-0.5778246329596805,-0.2740175755376381,-0.5265959365206171,-0.47561951798372903,-0.43037244280126913,-0.024632054771268185,-0.004239124704790732,-0.06007001654178973,-0.44629252723792506,-0.19334060425333396,-0.13140568298900476,-0.4179281377366224,2
11.825,8.375,5.25,6.4,13.725,14.575,3.725,7.75,747.0,531.0,314.0,356.0,952.0,976.0,227.0,475.0,19.0,19.0,17.0,15.0,20.0,18.0,15.0,13.0,-0.5737794701524837,-0.43089324744258767,-0.2568518305504106,-0.17997766698388673,-0.19035193702163103,-0.2488260221799989,-0.09235673825669223,-0.10341780871361489,-0.3543797441472268,-0.09295045998940418,-0.3747930470007446,-0.5238160492333108,-0.21207127176107016,-0.2930574582444214,-0.2083683641229978,-0.5843664070500075,-0.5072028258798542,-0.37585249792726316,0.028780086584457742,-0.270050362375685,-0.5350241229056794,0.009353701023202725,0.1674234544960356,0.06289803928874244,-0.4491793085170727,-0.1635867349244424,-0.15183688086674707,-0.2763682226279374,-0.24927271241701904,-0.33127885232561555,-0.07388624798211912,-0.17891803973525866,2
17.225,14.45,7.15,8.125,13.475,22.8,5.275,12.1,1108.0,898.0,469.0,513.0,843.0,1434.0,340.0,744.0,19.0,16.0,16.0,14.0,17.0,17.0,14.0,14.0,-0.4214688585651869,-0.45156287809262097,0.012240743737334848,-0.2920660061023607,-0.2332414791343826,-0.10285628709275137,-0.16719320392202325,-0.026333544030618394,-0.4966194542519287,-0.20289384120292647,-0.5734827911030058,-0.503138944405561,-0.6160922131162849,-0.5434364840110324,-0.572776074087084,-0.5181679509341649,-0.3291010829266664,-0.12981211698786257,-0.10309324338835434,-0.08013423490508635,-0.4490925582502326,-0.19651912543268366,-0.48758984431543717,-0.25217371540475,-0.504890023996678,-0.2736187296646595,-0.5335363124076987,-0.32499965627665267,-0.2701617271570846,-0.41391239347628445,-0.1762396257232599,-0.31852076771336274,2
16.125,18.475,7.375,8.1,19.65,28.1,5.35,11.325,1077.0,1305.0,515.0,509.0,1273.0,1687.0,357.0,661.0,15.0,19.0,16.0,19.0,20.0,16.0,16.0,15.0,-0.2897940331784752,-0.16789737163865062,0.0004098340644173301,-0.2023698466660992,-0.7515561323308884,-0.562033292609908,-0.4295999989440278,-0.21753927312310473,-0.5403937354183945,-0.2722879056291719,-0.37368246541182465,-0.21235916000232644,-0.5692178982330993,-0.6596023102300984,-0.5139048058367908,-0.505954776922151,-0.7629644123705729,-0.5376024580972173,-0.3670739290121515,-0.2141076082495677,-0.4573012466017291,-0.36846070916018514,-0.23667343063804572,-0.24726922570214155,-0.16881682396401262,-0.03648791820364298,-0.25338283700773734,-0.019427875404806158,-0.15362911857750286,0.046835453489247295,-0.16430129015530429,-0.1021674322533197,2
16.275,16.625,6.875,9.325,24.6,27.85,6.975,10.95,999.0,1084.0,476.0,600.0,1746.0,1622.0,379.0,715.0,17.0,14.0,17.0,16.0,23.0,14.0,13.0,18.0,-0.3239440948566044,-0.16730563691617661,-0.015146168093755687,-0.09123617891216673,-0.5669954970153078,-0.3290506788182365,-0.2945193404737807,-0.26300771653598276,-0.3688746692070443,-0.2206103075681745,-0.18629810464040447,-0.14692000130598848,-0.6625782382386647,-0.6049514689239015,-0.5382293545326092,-0.5657450474154173,-0.7997499299815952,-0.5692305080297713,-0.42334904124072975,-0.25970345512898657,-0.3504010645733983,-0.3054394954697375,-0.21812689912980796,-0.3765753898483012,-0.046059883259803196,-0.2036823464102567,-0.18910240830976768,-0.26193595646475865,-0.16436468409488975,0.013401145450899073,0.10476632392564543,-0.29644417867924133,2
17.525,12.775,6.425,7.4,19.35,26.075,5.325,13.65,1066.0,715.0,432.0,472.0,1100.0,1723.0,327.0,929.0,14.0,14.0,20.0,18.0,16.0,20.0,16.0,20.0,-0.4795780563639751,-0.2902997014882303,-0.19093174060842388,-0.24931177838914864,-0.15709745223058236,-0.2101087352856343,0.040113258243953114,0.02574758230684124,-0.58790000174195,-0.4551947997431038,-0.15030573431982602,-0.3335414924273696,-0.5433783861689326,-0.631088329102672,-0.4063731812984708,-0.406468628593008,-0.3439789809174158,-0.41919274437780524,-0.20064007957708066,-0.23023523805116697,-0.49918386133290377,-0.15706395939472423,-0.28894949015507027,-0.39278567863145697,-0.34895554011722946,-0.13621312990491602,-0.19316861854999665,-0.47119206019016047,-0.6431563873840208,-0.26290874862602,0.015451082404061015,-0.008666863469076507,2
26.1,14.6,6.875,6.875,21.275,31.75,6.025,17.525,1888.0,878.0,436.0,414.0,1292.0,2250.0,373.0,1194.0,23.0,15.0,20.0,20.0,16.0,21.0,11.0,18.0,-0.4426893266741465,-0.03922001834353987,-0.16689433406983128,-0.15623224840080716,-0.28466765612210654,-0.049270532126302224,-0.42155284345154326,-0.3644516203864777,-0.3213172244844415,-0.04487217857907873,0.12798693668085748,-0.031502892957888204,-0.2689518646572507,-0.2866591835230235,-0.46325588298644893,-0.10040916063457404,-0.3327183955458483,-0.2639369192317155,0.01712366944403729,-0.08845266418534593,-0.5212927966682299,-0.04897658491643909,-0.13730620823033787,-0.17235382946559893,-0.3346852837789659,-0.3015473937837467,-0.24209885160163305,-0.43283752831570543,-0.37129929072877355,-0.14865957345843867,-0.4055766779680345,-0.06111421144612834,2
19.325,18.825,6.925,6.575,18.9,23.9,5.05,15.3,1311.0,1311.0,467.0,436.0,1334.0,1597.0,311.0,959.0,17.0,22.0,15.0,18.0,23.0,18.0,16.0,16.0,-0.5897703068584481,-0.38372361935913885,-0.11666424251145899,-0.30279962802642385,-0.5092368660631588,-0.40943965057011866,-0.3471554314145595,-0.3058282067809294,-0.6158987222081896,-0.38880994842995414,-0.04528871972575743,-0.11589668407562179,-0.5922567517976491,-0.7405775270746211,-0.33426600214766267,-0.24260926516630893,-0.34428304532832726,-0.0669596382667007,0.183300172627588,0.16091222877073458,-0.2904097798839498,-0.052175992641593956,-0.1290386774114926,-0.025313674172406587,-0.25026825439002026,-0.05006331011074527,-0.42562949057146404,-0.37733888207214017,-0.3398305541123263,-0.3153216094635976,-0.20068738406353243,-0.13802928849545912,2
19.925,19.1,5.225,7.025,19.0,22.175,7.625,14.275,1329.0,1337.0,297.0,409.0,1198.0,1392.0,491.0,918.0,17.0,18.0,14.0,19.0,13.0,21.0,15.0,17.0,-0.520568338094229,-0.4529875579844451,-0.07002633314723579,-0.10314563594719355,-0.5759895359525016,-0.301398266835279,-0.24875156892182887,-0.3516282791342365,-0.1623436458307559,-0.5668164509577153,-0.13469884259082213,-0.3988381239536082,-0.27529604368150246,-0.5740502967378935,-0.2153194109936304,-0.2896606510504334,-0.3113380729619384,0.046499432127338654,0.43760231837157004,0.07094261224319912,-0.4376009255897918,-0.36574192913121434,-0.38203158404338156,-0.28309118966356067,-0.6165590223705856,-0.5022009681513278,-0.5505080820039941,-0.45150867905487246,-0.5503829410094241,-0.43370671979851244,-0.48773370812536165,-0.2709167479627646,2
22.725,19.425,5.35,6.375,16.675,30.825,8.825,13.3,1490.0,1290.0,362.0,396.0,1083.0,2083.0,591.0,872.0,17.0,19.0,18.0,20.0,19.0,20.0,24.0,19.0,-0.6313534616374185,-0.3334445231182751,-0.0585417051781498,-0.06747716917659995,-0.5404877987748065,-0.4170520951562475,-0.5646902473795099,-0.5293131148287014,-0.6022406521921448,-0.3131005291268548,-0.23714401806788535,-0.032468289518227465,-0.6409038945850497,-0.4767033069629223,-0.5594663944841507,-0.29198664107326017,-0.29080232872324724,-0.05439099980741836,-0.1333888057500827,-0.005916747308613072,-0.6583154361584322,-0.39356590138557285,-0.3548305242582007,-0.23320617967002932,-0.49848996445723853,0.03951040967443508,-0.12517650561943863,-0.14692542470054687,-0.3329029913387732,-0.07252020358561616,-0.3959765972053574,-0.3751683005823422,2
25.225,18.1,6.475,6.275,17.0,24.375,8.15,18.1,1788.0,1149.0,404.0,387.0,1080.0,1682.0,549.0,1256.0,21.0,16.0,19.0,21.0,21.0,21.0,19.0,24.0,-0.7144074621648328,-0.1440323839886274,0.09643300282372047,0.1042824030742745,-0.3281600841266332,-0.16802540851761258,-0.16175630866664362,-0.047649762650152847,-0.39722455401979356,-0.041737867508695695,-0.27669454444946195,-0.3465225895909142,-0.3693835970333667,-0.2557568382623766,-0.05252408532105444,-0.3369457626089206,-0.28395310902972387,-0.10197521183897532,-0.07468512844468866,-0.024452132334742645,-0.5072656516839466,-0.2442994567750048,-0.3121198694481176,-0.04949049459389519,-0.614002964310658,-0.07040200563259082,-0.21909497118129675,-0.08338836752334182,-0.39403541259939157,-0.15202813413349026,-0.199630251269453,-0.14032395845388637,2
29.65,16.05,6.825,7.55,16.525,26.875,7.175,18.825,1880.0,943.0,413.0,398.0,984.0,1729.0,411.0,1257.0,15.0,17.0,15.0,13.0,18.0,20.0,14.0,23.0,-0.38192209554938394,-0.3275685036342456,0.009217529852633124,-0.07022406596837168,-0.13688092609477234,0.040591887166247224,-0.23139439623307148,-0.16408004581588112,-0.4187353405534248,-0.22561937499445409,-0.47223046814305253,-0.12046401206691354,-0.42650911463552194,-0.625517682362422,-0.5151007403108888,-0.411322897035195,-0.20340358509150017,-0.10048355587215455,0.0007857498202010312,-0.4264816516274041,-0.4667653600229314,-0.2848841590956536,-0.1448296760719306,-0.20660407758189428,-0.2829083679098659,-0.3069132281809024,-0.06819756191947174,-0.19857152713473333,-0.38982094181708127,-0.01446867120136917,-0.01374481243507862,0.05473683562438583,2
20.35,15.95,6.275,6.375,17.125,25.575,7.7,17.875,1248.0,1033.0,368.0,370.0,1222.0,1579.0,494.0,1203.0,21.0,18.0,14.0,14.0,21.0,17.0,17.0,18.0,-0.18101279633944603,0.13507020697089664,0.0743636594636191,-0.1304474900963601,-0.29614812650800076,-0.12097641966189139,0.0011431432983399043,0.0198170367904303,-0.4244592448559095,-0.6579166056321418,-0.45562658139540463,-0.22928843303461285,-0.5639422642383559,-0.7796788582340709,-0.5506640310131001,-0.2373287657623832,-0.4329193329274713,0.25225578820353445,0.11887237590502449,-0.1686036396614026,-0.5508687892044748,-0.46914195108863627,-0.3590469252105218,-0.4419729552551337,-0.3240770316901201,-0.03774642381995067,-0.12177781349354351,-0.10123646170322202,-0.5480549507071218,-0.2244650870229322,0.034179109778184454,-0.057977952218828885,2
21.525,13.35,5.575,5.425,20.625,22.475,7.5,20.05,1313.0,882.0,354.0,309.0,1406.0,1531.0,428.0,1336.0,13.0,16.0,19.0,17.0,21.0,22.0,16.0,17.0,-0.2088705158682541,-0.25584161347831263,-0.011685935541694115,-0.008744131343142387,-0.5723994740051849,-0.5198281199417513,0.06213766813028564,-0.11036008520888906,-0.36281573029751035,-0.3724263211601288,-0.3194516637140834,-0.18855201434174587,-0.5520146954166983,-0.6199079342908278,-0.5585803597431404,-0.21629042895136893,-0.5345447660313616,-0.1724719334563338,-0.016693309161159624,-0.1195724589910914,-0.47242620467493723,-0.01452508846939721,-0.29660548459850994,-0.34786265308924585,-0.4354353667440685,-0.3670046536696721,-0.4865836012770763,-0.39061120571514196,-0.5534128191226253,-0.2399479665482021,-0.01814742446506499,-0.14675239219969155,2
19.3,12.4,4.7,5.775,22.075,23.25,6.25,12.4,1301.0,805.0,317.0,339.0,1637.0,1570.0,394.0,748.0,17.0,16.0,18.0,16.0,23.0,16.0,19.0,16.0,-0.23810949596865583,0.4233864412413006,-0.003971527741130967,-0.28917951794220725,-0.4212634193875316,-0.18167739977168046,0.1813695280468765,-0.144224498104938,-0.3957276932746687,-0.2255020986822737,-0.028845629702726215,-0.4359645632987839,-0.4911486508900308,-0.27675472525088207,-0.43365728200320525,-0.4522566263164122,-0.8733379396141636,-0.49753559620215104,-0.31604175465947437,-0.2149945324944405,-0.4706738970658756,-0.2627917365619001,-0.23742873307714074,-0.37381979836395873,-0.3494411763265622,-0.39451281816017647,-0.10260790120086728,-0.3659595322457156,-0.18545758691713127,0.06969194530748876,-0.13041152387668775,-0.28281798477372144,2
9.5,17.325,5.125,4.125,12.475,19.525,3.35,7.2,636.0,1095.0,323.0,268.0,851.0,1237.0,232.0,470.0,17.0,15.0,18.0,18.0,20.0,21.0,21.0,18.0,-0.787380001922286,-0.7205721544969609,-0.4030719081775563,-0.24210733152861688,-0.3817824516332624,-0.21733730662691098,-0.29777926010193945,-0.512699232882587,-0.6382697256634546,-0.22690751133128745,0.0488962371938619,-0.005621797582137844,-0.4475065692633373,-0.19226301750418112,-0.3287934279773958,-0.19891123172252662,-0.6004830151417662,-0.2979724653042097,-0.003387720847344058,-0.1033772763937545,-0.3151136812688992,-0.07955221830488271,-0.06893675030893513,-0.09083822310677431,-0.5943060006655015,-0.22516940421817702,-0.0037669906624919172,-0.015182104438329777,-0.585024813547242,-0.30815113568972985,-0.4021286103744171,-0.1100473838865245,2
6.825,19.6,5.175,3.05,11.5,17.725,3.6,7.075,467.0,1346.0,336.0,205.0,771.0,1058.0,245.0,474.0,19.0,19.0,15.0,15.0,17.0,13.0,12.0,21.0,-0.4286818304283254,0.14218624677581676,-0.020038738769879987,-0.13078315021601214,-0.5939034063355095,-0.21732550366816086,-0.3770761221950469,-0.4249927588316098,-0.4442325037305744,-0.020158796980963248,-0.05126122527044855,-0.19872443218583663,-0.4224466599294292,0.0050098252854278505,-0.34496970978724206,-0.37645136016492003,-0.38024809361538675,-0.15978067068487786,-0.3365236873247608,-0.17808057854806747,-0.2973444356033122,-0.20690109395760292,-0.3279331021387672,-0.21842868710794083,-0.46875053591167964,0.008278093815170874,-0.14727005394426923,-0.30142650511369234,-0.35485096561188567,-0.045151897498078186,-0.28195033122231833,-0.35864731229192925,2
3.95,12.5,4.05,2.825,9.7,14.0,3.3,6.05,276.0,869.0,206.0,170.0,649.0,804.0,233.0,426.0,21.0,19.0,12.0,13.0,18.0,14.0,18.0,19.0,-0.4246853156137332,-0.007975798793181466,0.06598348788635842,-0.11150922699340915,-0.5022636480711763,-0.3026705605974027,0.2275289083126617,-0.12738577417944708,0.01038588965995486,-0.3967225685851611,-0.06310931223686145,-0.2504417604038752,-0.36684609889375686,-0.3500962212789253,-0.21077289976871036,-0.18894867352686534,-0.5634107117018053,-0.28488072875070075,-0.27029495721697994,-0.3402383154995022,-0.46545603184627665,-0.48039196061864675,-0.4286055653219471,-0.2928058620654403,-0.6988963533446266,-0.36637405483689256,-0.24110856916605827,-0.283102283063864,-0.829665611336798,-0.4447277284783331,-0.10482396428288838,-0.0004938161372973195,2
7.35,15.1,5.475,3.7,12.375,15.95,2.775,6.6,495.0,982.0,323.0,201.0,864.0,965.0,192.0,444.0,18.0,15.0,12.0,13.0,21.0,16.0,21.0,18.0,-0.3772824487265491,-0.17116432195808043,0.014785367087614746,-0.268980970511851,-0.39729823684175525,-0.3772573949535452,-0.2818194271787535,-0.4355979125883357,-0.3040562668097621,-0.32385469125804545,-0.23257698491504844,-0.2758128277915683,-0.3371639113962432,-0.33184141640162584,-0.21974548244647413,-0.29672199544505695,-0.6423733179348105,-0.35178049013910184,-0.19353594111527303,-0.19247332735011866,-0.5201892034464446,-0.47032922817992934,-0.3726785505635839,-0.2227959820611629,-0.6349503920648051,-0.3687362705807424,-0.19378813038887327,-0.30651236663378356,-0.32421545281863473,0.07895793609415337,-0.027340596600178964,-0.04723120867155728,2
6.825,18.05,4.65,3.525,12.125,14.725,3.525,5.6,414.0,1218.0,286.0,218.0,830.0,967.0,213.0,323.0,12.0,17.0,13.0,21.0,18.0,20.0,20.0,11.0,-0.19892857292131522,-0.05046141753558107,-0.19656116800906978,-0.45650708899245745,-0.5915222901221078,-0.41766809786901976,-0.4022229033608664,-0.15262785278068616,-0.43294409269921713,-0.2322410996179915,-0.1701948427187344,-0.1442744633589079,-0.31496609511403867,-0.27889714121067655,-0.11255774391443817,-0.4794373619406065,-0.726148901472975,-0.39826487137680294,-0.3786873685232128,-0.1796871675596988,-0.6874643235532267,-0.6257685278281395,-0.2991956647699786,-0.2827463870596409,-0.4259442562835477,-0.2816988874694703,-0.258867977566091,-0.10827432121000337,-0.17088458917535343,-0.37686327617724735,-0.22737989376558712,-0.08109628895190857,2
5.55,15.35,5.625,3.1,10.475,14.925,3.275,5.45,319.0,970.0,343.0,191.0,655.0,853.0,206.0,334.0,14.0,19.0,14.0,18.0,17.0,17.0,20.0,18.0,-0.27392591641338,-0.2764116976705861,-0.19044508225954077,-0.248934828782188,-0.3722534928997658,-0.39484413413403135,-0.013530572106462154,0.017076085104875658,-0.43798720581038153,-0.5804957834504567,-0.2827554034434674,-0.5154018484238392,-0.4824501173960632,-0.3711509084823455,-0.3667034414985341,-0.3453884148046749,-0.38184400453456446,-0.12658276759265624,-0.32808814001018466,-0.18277265909469742,-0.5610272689781651,-0.5109393643057225,-0.5200642604561379,-0.3709625810538207,-0.6844770841826309,-0.41955701949851715,-0.11628586550584095,-0.10881258323971771,-0.30478932947328,-0.5362446122414685,-0.06136023614921904,-0.3882324014515698,2
6.675,13.775,4.3,3.6,12.525,13.7,2.7,5.4,381.0,794.0,273.0,220.0,771.0,789.0,170.0,346.0,16.0,15.0,18.0,20.0,17.0,18.0,11.0,15.0,-0.2728104484934089,-0.2716262745376778,0.023452156121142893,-0.17200717627128417,-0.18193119397362795,-0.23911619586764965,-0.1783013586420942,-0.05985843931860886,-0.3666072937302685,-0.15969338021789345,-0.026074229953787116,-0.12105197981275881,-0.47101044298661404,-0.2593171596080714,-0.1709297167145611,-0.08149763253720836,-0.42636197954634875,-0.27174790575658925,-0.29710038530050664,-0.16638670093262967,-0.1969436419980548,-0.18840150238970518,-0.13660550189854748,0.09374630188883842,-0.3105709155127787,-0.5011490883072912,-0.3193250609302349,-0.36073123392938233,-0.5288294991257605,-0.33064145556108165,-0.3151299516759802,-0.2900165054223705,2
7.25,11.4,3.375,3.0,7.95,12.825,3.0,6.625,444.0,704.0,201.0,149.0,526.0,739.0,193.0,366.0,18.0,16.0,12.0,10.0,20.0,16.0,17.0,14.0,-0.5294725086988841,-0.3219971242949059,-0.49508567801962367,-0.5816615205572597,-0.18241236646161155,-0.18836498867496135,-0.009334047675140527,0.06349544202978467,-0.18104872484680914,-0.08340103453256444,-0.08640488672880241,0.0270039863448999,0.07544694870379193,-0.20098132546387848,-0.07289668384498169,0.03849036823199046,-0.46188132663781284,-0.1655232702068229,0.08010650691671659,0.17098217685295963,-0.13245336775993674,-0.11262874460164352,-0.024213854358718926,-0.08877896357032998,-0.1969206179897061,-0.02168030285408056,-0.008702659757701528,-0.02230689909542076,-0.12128833108014522,-0.17341745132205355,-0.2044741186992233,-0.2584860722723109,2
8.5,12.475,4.6,4.275,10.025,15.325,4.4,8.075,454.0,811.0,256.0,282.0,686.0,974.0,286.0,493.0,16.0,17.0,11.0,19.0,19.0,18.0,17.0,22.0,-0.10015514344394234,-0.10229698790781866,-0.26732964782458774,-0.24286258269153346,-0.3416380294816178,-0.1288618812036944,-0.22008795898485875,-0.36540362469016985,-0.09198261943937089,0.026169965244923557,0.11642513554252676,-0.4646618731678593,-0.6396412886659624,-0.41422065261425234,-0.4282637078679846,-0.14767896094578947,-0.517111870591251,-0.16885471340852612,0.29982801774558365,-0.09477383371930678,-0.4094230374786756,-0.4479144025816526,-0.22800452665020862,-0.3188581474830586,-0.2768339683562425,0.0038143318318217692,-0.19143341415716214,-0.15448353860260955,-0.15499730730946404,0.10510665880324234,-0.27704871376164536,-0.27505898273740403,2
7.95,13.2,5.5,3.95,10.575,14.15,3.4,8.5,459.0,920.0,332.0,232.0,710.0,875.0,206.0,550.0,17.0,20.0,15.0,12.0,19.0,16.0,15.0,14.0,-0.13397630041640765,0.009365810405390104,0.06275505033777953,-0.20989092390500186,-0.5229815572105951,-0.14462430707944615,0.09342732694153244,-0.11911668164906705,-0.28567639264670164,-0.3243773496648201,-0.11390021830382724,-0.23008693812956232,-0.22162076559822427,-0.28427365846717195,-0.11572018655052534,-0.05635787422593147,-0.5934530372274981,-0.1539281629879201,0.13576641286696223,-0.09402398523819913,-0.24200351887753202,-0.43350001090001683,-0.009374732293613502,-0.09720763775757815,-0.29029979455009497,-0.29486563059124743,-0.0646305915675802,-0.1676252970446893,-0.5855091548323009,-0.3268756140426588,-0.2631738631579495,-0.17636428055072773,2
10.025,12.825,4.525,4.0,9.225,19.7,4.15,6.25,614.0,894.0,286.0,231.0,635.0,1275.0,276.0,361.0,14.0,14.0,14.0,13.0,22.0,16.0,18.0,14.0,-0.20809246396925649,-0.34368544709242016,-0.12510021714843303,-0.3353190799954107,-0.48057485000805317,-0.09401238418071756,-0.03771206095833989,-0.08688726260841434,-0.4139661371725938,-0.3000539540464304,-0.14877102246324073,-0.3374504768491317,-0.3652007182570985,-0.3033855216125441,-0.11738627486059279,-0.07341939194505277,-0.5864331473194822,-0.21723276108545386,-0.13959240245951693,0.07113629304391882,-0.4208132015592982,-0.21514849934039815,-0.294287216841305,-0.008584733052815444,-0.5819788284712863,-0.5060106863449093,-0.24017009053660285,-0.21347589698976624,-0.38703872542261974,-0.23268371628332454,-0.21720187993513584,-0.1473921819192221,2
15.25,18.375,6.1,4.65,11.375,18.475,3.8,7.7,1107.0,1227.0,400.0,270.0,729.0,1138.0,237.0,418.0,24.0,19.0,16.0,16.0,19.0,17.0,18.0,15.0,-0.3440436833345885,0.05046616090984581,-0.053405204055009904,-0.18808527805784064,-0.5176323895253764,-0.2338787876569397,-0.29450028228328085,-0.350520502789508,-0.533009631854029,-0.49376682310984454,-0.33080190641352736,-0.08011688125828205,-0.530288500757772,-0.512467385627476,-0.3984231186603793,-0.21306218272161606,-0.3244768475202219,-0.019792318885669687,-0.206000601294275,-0.01865028809106011,-0.22061366339376706,-0.09373569111162634,-0.2155794696971693,-0.18831946108871667,-0.2332888306377865,-0.19489529229851027,-0.07143873260663375,-0.2314118484748729,-0.12744457960698816,-0.23579920394886902,-0.2062805229409008,-0.08918190870531162,2
14.5,16.525,5.85,5.175,10.925,18.3,4.125,9.325,903.0,1132.0,378.0,334.0,652.0,1106.0,276.0,570.0,15.0,22.0,12.0,20.0,14.0,16.0,21.0,17.0,-0.3130240123219325,-0.06696351614980638,-0.16880810085245398,-0.2703234353376554,-0.7112605602878798,-0.5119083289602152,-0.22848192949547066,-0.08507584920302,-0.49434514890508097,-0.451539604609792,-0.3647381402539194,-0.069627106720207,-0.7321727396886366,-0.559676262317694,-0.2739180511884926,-0.01602476411337521,-0.2163209906070949,-0.4077568348231923,-0.023561351215656685,0.04808247142551508,-0.24658221628731844,-0.2919510254009466,-0.23219182962446797,-0.1676347376965628,-0.4764718418935603,-0.18169361457979968,-0.08977414962574001,-0.28998433075760005,-0.3520243433830072,-0.16772817554174554,-0.3143308332833507,-0.40053016409588343,2
12.575,16.325,5.05,4.225,11.2,17.325,5.475,8.15,855.0,1121.0,326.0,266.0,726.0,1143.0,359.0,542.0,17.0,18.0,18.0,13.0,21.0,18.0,16.0,18.0,-0.5208378542384544,-0.5930489668510701,-0.21210463378248468,-0.1746451759937648,-0.48898131348557333,-0.31435790465828656,0.0768355370797994,0.004642000824117024,-0.3864002749113304,-0.24908477098427598,-0.10697184727044041,-0.38290024829984026,-0.5229061005770209,-0.5462458841151181,-0.5036974602066493,-0.3500541865770867,-0.3096996005544084,-0.09806564674201561,0.043970923526329614,-0.24065181552703224,-0.58777031764152,-0.49274579517859,-0.10381343668418927,-0.2274762488591353,-0.49019242225844595,-0.14061320379481082,-0.18527971752478223,-0.45617847818194757,-0.3296252299225943,-0.2290680291945576,-0.08743103259275786,-0.2579276972959456,2
17.325,18.25,6.1,4.2,13.1,19.275,5.775,11.95,1181.0,1095.0,375.0,226.0,882.0,1231.0,338.0,779.0,19.0,16.0,18.0,11.0,21.0,18.0,18.0,18.0,-0.32313153765925773,0.002625056678672972,0.24642875931332775,0.17204899146796562,-0.158296073833195,-0.3502609345117493,-0.1703417398202229,-0.35933119503517696,-0.1733087723562029,0.13920609262172146,-0.04629177372711307,-0.09900544559271819,-0.31940069261526305,-0.5238892714882392,-0.3812534508158719,-0.577728433464839,-0.5445873045666187,-0.17467828945924702,-0.2758515223289089,-0.214988388089305,-0.5106282878233698,-0.537202624729503,-0.24929502891335603,-0.4172531838549168,-0.3865948316748926,-0.2941704225738524,-0.41344479639271586,-0.29588523804168454,-0.45893659063708997,-0.1695869464546578,-0.1297834471282832,-0.16274457992215968,2
22.05,19.675,6.025,5.2,13.725,15.25,4.75,10.25,1451.0,1181.0,368.0,334.0,896.0,948.0,292.0,718.0,17.0,16.0,14.0,16.0,19.0,18.0,14.0,19.0,-0.4735210089172543,-0.18056068049973287,-0.2588070959784259,-0.018288958677162286,-0.33514921031500366,-0.1738100839226028,-0.44748978095868663,-0.23743936539518737,-0.08334260831845815,0.026747193724574354,-0.24451968960865575,-0.18084471084561787,-0.47859190659031436,-0.22287107615716337,-0.44222832181014493,-0.49994553547770465,-0.5360767705574059,-0.2640427349603699,-0.014390379469322215,0.12894722650544116,-0.27253101021764786,-0.04309768618393617,-0.001765084705150322,-0.28583293085192146,-0.3019477813181753,-0.12430179686606443,-0.10140675826275594,-0.37718905069913555,-0.5708404170068456,-0.20269313249756835,0.11673598739321013,0.1393391616925641,2
16.825,15.375,6.075,4.95,15.3,22.525,5.25,9.7,1187.0,933.0,376.0,291.0,934.0,1604.0,356.0,621.0,21.0,19.0,16.0,16.0,12.0,21.0,16.0,17.0,-0.6148759110708166,-0.1938372996593869,0.057377621002500795,0.11881616315614038,-0.10946741980727498,0.16145519745112893,-0.1394153765743419,-0.23450836197419794,-0.30421785301462,-0.2597374249701925,-0.1733409010477203,-0.490085193691181,-0.49097724166633067,-0.35560983703611987,-0.428046115140005,-0.4634186289242184,-0.3579805399693538,-0.3623692843194005,-0.2715600717254226,-0.46536083087716545,-0.6286264450459156,-0.3219547329741431,-0.013541794518329615,-0.09162142300155365,-0.5145872187309066,-0.35287647238072195,-0.07755661014449602,-0.21190299998662743,-0.4186771249852497,-0.4897554086251538,-0.08370721254402964,-0.22036935585272258,2
15.475,18.2,5.175,4.4,12.525,20.2,4.575,11.1,1097.0,1116.0,337.0,281.0,788.0,1239.0,299.0,717.0,21.0,18.0,18.0,18.0,18.0,17.0,18.0,18.0,-0.5066000259126505,-0.16489794051855128,-0.38913132817630275,-0.3796038980496869,-0.518680407767049,-0.5772225486926846,-0.4086326723427176,-0.4425391768587654,-0.5773848012619238,-0.46698366735085545,-0.28918645611160376,-0.03734394307269826,-0.551825949651669,-0.5280099123661864,-0.27393188426144927,-0.19684162520389517,-0.2172889588796274,-0.1470705970507189,0.08626953393598993,-0.06613346430916398,-0.22597170038729497,-0.1728386036596036,-0.19412014879556053,0.11912390333516559,-0.571911651767888,-0.42150555840079534,-0.10646996518591266,0.01644789145690326,-0.5839145005683795,-0.5070013995622038,-0.4088521330433392,-0.2745757511157531,2
17.95,21.4,4.275,5.4,12.625,24.6,5.1,10.9,1235.0,1374.0,280.0,329.0,756.0,1265.0,296.0,715.0,21.0,19.0,21.0,19.0,15.0,15.0,15.0,15.0,-0.42202178470143203,0.09450550629481559,-0.03304866604516881,-0.039459161911173914,-0.43435602874443613,-0.21561544717321085,-0.26189826585857734,-0.21731241321343914,-0.24765390435698828,0.1585288296883845,0.06459609036563153,-0.16321185377363615,-0.06901378388555739,-0.3060030773280119,0.044937377110721044,-0.48912910904368906,-0.15094461820499652,-0.09129440407043378,-0.061962111088366065,0.282787630859297,-0.016437832693857245,-0.46380338733603804,-0.03623828859300639,-0.10048022475038315,-0.13447090935080602,-0.18181975008259701,-0.11972412768958046,-0.15646290960849155,-0.49744560467603355,-0.2069375900055588,-0.052432139417015515,-0.15108755377976357,2
18.4,18.675,5.225,5.3,17.225,21.325,6.125,10.6,1152.0,1117.0,374.0,362.0,1128.0,1330.0,377.0,649.0,15.0,19.0,20.0,21.0,16.0,22.0,16.0,15.0,-0.4865367603829475,-0.3324501445255332,-0.29511221070380333,-0.1244211687148863,-0.08680420407754356,-0.30537936779721464,-0.07830262302567766,-0.2478470557837651,-0.3636038519282233,0.18183240227767106,0.14214695868626556,-0.12562183008897404,-0.6318048702698409,-0.2572281264514359,-0.33977148213045566,-0.2633660379834294,-0.8060054459292854,-0.6899534027030002,-0.3117988554951049,-0.22359467142164174,-0.460445176373943,-0.4040593269275833,-0.15802790115722368,-0.11643321735324916,-0.5262928668656734,-0.25736557705330204,-0.03439743440754112,0.15127356039368361,-0.23922253918296216,-0.046601967413628334,-0.1678794218780902,-0.03234275939424547,2
26.775,22.4,5.95,5.25,17.425,22.375,4.925,10.9,1702.0,1410.0,311.0,350.0,1187.0,1501.0,322.0,714.0,20.0,15.0,13.0,14.0,23.0,23.0,19.0,21.0,-0.6432235896113758,-0.4110300590517828,-0.3810591479181745,-0.3044717283524263,-0.5945073611250504,-0.5543168899449692,-0.5065980770745622,-0.45445984072369383,-0.008248951632653798,-0.05717325989053847,-0.16214299058839282,-0.24915384854378134,-0.5151245865839881,-0.2731389073360658,-0.4902428828653912,-0.45039291314729674,-0.5292925999552723,-0.15386819335010213,-0.30818612893069053,-0.28033526613481446,-0.5094605393163482,-0.08755885733395587,-0.31677878144566674,-0.2714650957826793,-0.4137519799421594,-0.16917589850696196,-0.1343636941460397,0.1036028573010024,-0.34516869063284145,-0.204295212191795,-0.21326269826635474,-0.11408994019186937,2
23.0,19.35,6.475,5.575,14.1,17.325,5.975,13.225,1432.0,1208.0,347.0,320.0,908.0,1078.0,385.0,866.0,15.0,17.0,16.0,13.0,17.0,17.0,16.0,17.0,-0.45614054610008026,-0.46508593680188426,-0.1776896673481999,0.03417687917648562,-0.34635642703482716,-0.3882302693946964,-0.2793071162659653,-0.4355979860584913,-0.25072784906855816,-0.33085670158668545,-0.32034511063119214,-0.1982625469682505,-0.6718822992013611,-0.6288273262238446,-0.8196374309015756,-0.42417992726775927,-0.4295758454348767,-0.0746162350688515,0.05919715207146695,0.023179610659578628,-0.3689705532084133,-0.010160924506398094,-0.13628055991425364,-0.17080097311794007,-0.4869404618873729,-0.13800241024184753,-0.5103755493897136,-0.4170619090344128,-0.5032680851913264,-0.35243830993267034,-0.30666017268449547,-0.4043248021867818,2
19.925,20.775,6.325,5.275,11.55,20.9,7.5,12.8,1379.0,1361.0,411.0,343.0,715.0,1444.0,472.0,785.0,18.0,20.0,18.0,12.0,18.0,20.0,19.0,19.0,-0.4088607294530101,-0.09990572146277552,-0.034228323122656064,-0.09399710295319968,-0.5714561790876953,-0.5605994379525865,-0.3299204781246145,-0.3889315066095583,-0.3336727590825689,-0.009075340030500706,-0.20307989717877345,-0.4669480125171084,-0.44826490287511034,-0.28032474676626146,-0.3715625250008929,-0.2622745988838457,-0.15620806991444935,-0.06111145853626639,-0.10091816670946033,-0.3940873387730297,-0.7879002841553473,-0.4931214932788199,-0.2571648862322284,-0.08585078047316846,-0.6164163103013627,-0.5899538651732917,-0.37650255636253194,-0.2259132644499958,-0.43319785054246374,-0.5146289731617404,-0.37097211383244966,-0.533005833036705,2
21.075,24.75,6.575,4.15,16.575,22.625,6.375,11.85,1395.0,1563.0,426.0,250.0,1121.0,1371.0,407.0,833.0,18.0,22.0,17.0,14.0,19.0,16.0,15.0,19.0,-0.5595169283902073,-0.30903654773036393,-0.4690247807465152,-0.24370522060215302,-0.4242393769706105,-0.22165971080264985,0.08051772123092611,-0.28222532621429375,-0.5106615723231503,-0.18157340094570812,-0.10125739790642786,-0.1355064713833967,-0.10603322030608314,-0.25579327725323153,0.18883677908305213,-0.3416574979050528,-0.5888195677317846,-0.24853414998261883,-0.1940555423357059,-0.26106226357370366,-0.47371594833974534,-0.3492435515154069,-0.5112985297177813,-0.306136650624058,-0.4914186509073908,-0.1468458622024937,-0.2260370283087048,-0.020557644279225955,-0.49325480990537285,-0.381644398740947,-0.2738668516554922,-0.3364564336395492,2
20.775,18.225,6.2,5.65,16.275,18.575,7.0,11.85,1280.0,1188.0,376.0,365.0,1160.0,1117.0,466.0,851.0,12.0,18.0,14.0,21.0,18.0,19.0,20.0,22.0,-0.3939807942402134,-0.3167833950931427,-0.1949853341980349,-0.4548948743754004,-0.19030921239494036,-0.013196833468298141,0.28551904454066857,-0.11950325295424351,-0.49510171455323443,-0.21904822122055762,-0.2728990892979494,-0.23477405879382088,-0.48822448553489434,-0.29637798067280063,0.2710671131212545,-0.04117849240213703,-0.47976916104760636,-0.039948304757415946,0.09186770128625928,-0.11248723851790446,-0.27386601024114315,-0.12343386596080634,0.028158780797079754,-0.33228038646245467,-0.4363227811544843,-0.24281300870296668,-0.2117566396066977,-0.1855170196997699,-0.29586855062182593,0.06548756199032327,0.27097310149660636,-0.30829994828560103,2
19.125,15.65,6.05,5.85,14.375,15.45,9.0,10.775,1217.0,859.0,405.0,372.0,816.0,920.0,594.0,730.0,18.0,15.0,18.0,17.0,16.0,17.0,18.0,20.0,-0.09155535287975583,-0.294861761606647,0.24908197470411142,-0.25452348795973,-0.13834575321541645,-0.14402703027284705,-0.06685903705846243,-0.27547173988828394,-0.5906241056434276,-0.7311724482943777,-0.2646557970156491,-0.502652411588328,-0.32572226773865853,-0.26423391892681125,-0.10299499471194681,-0.2791471978201783,-0.11428142097689396,0.01575915515188672,0.04017864034398776,-0.029125694354614675,-0.3149224731540557,-0.10872077612691018,0.16823179292448812,0.2547021733007632,-0.59672213049697,-0.555114353510029,-0.298979476204028,-0.37378579856378336,-0.2583432424811801,0.024794186560408948,0.3063723174089996,-0.2955224754516301,2
19.075,14.1,5.15,4.675,16.225,17.475,6.75,12.125,1142.0,813.0,332.0,297.0,956.0,997.0,411.0,680.0,14.0,14.0,17.0,17.0,17.0,14.0,14.0,14.0,-0.2027692116223088,-0.28890889337944153,-0.005193015490647362,0.010410561231610934,-0.2583922619643916,-0.04617154599686717,0.02471270205244304,0.1501445796688499,-0.5616719774257825,-0.41103995598152676,-0.12166842005671662,-0.05798621455207791,-0.3400377710319025,-0.7384131762351741,-0.14646899097876132,-0.5131981885434984,-0.3388059016990518,-0.32310195657708646,-0.09492925392145667,-0.04632060703459827,-0.2667193129666184,-0.41366408584921865,-0.22786450345239906,-0.06843734492698941,-0.21775702869771008,-0.28399547009590137,-0.08198287678905525,-0.4844674433049915,-0.311553952059397,-0.16407362116586635,-0.05340555949009405,-0.153358487605039,2
18.325,19.5,5.45,3.675,15.825,22.075,5.25,9.725,1047.0,1360.0,356.0,216.0,1065.0,1245.0,345.0,619.0,17.0,20.0,20.0,18.0,18.0,18.0,16.0,13.0,-0.10772860219971414,-0.25009546229146523,-0.041414022052023915,-0.09264366588183122,-0.5108927843155185,0.08078384823718267,0.05177962923998263,-0.09501881219469556,-0.4382682035432048,0.0006772381392221658,0.07712175116498057,-0.21452847356490787,-0.35445484543028755,-0.5264978957592172,-0.2385451333657034,-0.22892014610006817,-0.6940697894837483,-0.38608348031853595,-0.37626286949833915,-0.3442276124793016,-0.3651599997233764,-0.09462464078644447,-0.540167257036849,-0.31841790712503576,-0.3844316821832363,-0.31113687446933913,0.12817789256763407,-0.19751964376859069,-0.769715687242372,-0.510941762111338,-0.34648836984691567,-0.4079347942973122,2
23.9,17.55,7.2,5.375,14.175,25.15,5.3,9.7,1539.0,1117.0,461.0,325.0,961.0,1370.0,316.0,582.0,20.0,18.0,19.0,18.0,19.0,16.0,17.0,19.0,-0.4899833686736612,-0.29522438624360625,-0.2213384375764789,-0.017867745340629716,-0.4932014296791025,-0.49038041311427183,-0.37725583570667626,-0.41132944688088385,-0.454540793110438,-0.24177741611153375,-0.3065208124272698,-0.40852987451876,-0.2425855395274035,-0.4758082000625085,-0.1710066739688267,-0.5060987380331469,-0.2826959679574877,0.14330806974806945,-0.015037970846703276,-0.27383783442292187,-0.16573568894104423,-0.42325849219345296,-0.056486081917744214,-0.5676914622171874,-0.4858026173348786,-0.3694949877845256,-0.22144054359082943,-0.27381632028645586,-0.44287604824394045,-0.6103007325328687,-0.2979617341394789,-0.19467937644178002,2
21.4,19.975,7.8,4.45,16.1,23.45,6.5,10.2,1477.0,1123.0,543.0,246.0,1092.0,1478.0,387.0,672.0,22.0,16.0,22.0,17.0,22.0,13.0,18.0,17.0,-0.5865171959097877,-0.44410913496670923,-0.3106073770012004,-0.17251941374075724,-0.30888791719855835,-0.3922142606363297,-0.2973534865086315,-0.366066298679939,-0.5835398274702315,-0.09885692333466932,-0.24365161421359785,-0.357726322457619,-0.3222168301213718,-0.4803587560339468,-0.23789218461738032,-0.21761921834759895,-0.5628737124434683,-0.36599745421195734,-0.6260835396592932,-0.3304844635704567,-0.5136697522353864,-0.27523129562908116,-0.23257399798601092,-0.274242618433827,-0.3751555656017584,0.005138424519065902,-0.20719156126508054,-0.5144774205472595,-0.44273384110754355,-0.18338791197308493,-0.35343326666267016,-0.019284620543987906,2
23.6,20.675,7.825,4.125,15.1,23.15,8.975,10.15,1604.0,1142.0,498.0,252.0,920.0,1249.0,540.0,680.0,21.0,12.0,14.0,16.0,15.0,13.0,16.0,18.0,-0.5146162597429284,0.06432614368793182,-0.2593756000831064,-0.35101012879579824,-0.3648915655575,-0.3541336836779317,-0.36640255871897476,-0.31626809911183995,-0.63028300677345,-0.334685434245922,-0.07275875296568864,-0.14163745188600763,-0.5635436516662976,-0.7417192920600039,-0.39230426519339767,-0.3861825812407029,-0.13961390225619785,-0.1195815755600706,-0.3158997279017439,0.35791572789540693,-0.12722025629275982,-0.21440627750390784,-0.16661215422172532,-0.03597696085982602,-0.3777482554234428,-0.16585859462460836,-0.20976128647916062,-0.23603288929082342,-0.3925677063980402,-0.02520876222155654,-0.012061956675789935,-0.06248076303646032,2
22.1,25.35,7.625,4.075,14.8,20.2,7.675,9.875,1487.0,1635.0,449.0,280.0,1057.0,1231.0,480.0,583.0,16.0,18.0,15.0,17.0,21.0,16.0,15.0,17.0,-0.5423521072028128,-0.024634566704774704,-0.4268059257180883,-0.506466489206648,-0.7256923417401493,-0.6420025206427419,-0.5348902464644455,-0.44229836610237494,-0.37052629558805156,-0.38307827010292156,-0.24297025476809547,0.025791701230693815,-0.5882760950185489,-0.24361160714029104,-0.14952555507740276,-0.01967358673214442,-0.6493916761298547,-0.5074417882679805,-0.45896319180696266,-0.3655881287095376,-0.2473572702154348,-0.06726438467490296,-0.31166001871681975,-0.4110517876480137,-0.5552839311229708,-0.2907528433025924,-0.3672708595926196,-0.4684314934912083,-0.3225898912416508,0.06312036204940599,0.005911462924371699,0.08941639399575518,2
19.25,22.7,5.325,4.7,18.95,17.375,7.525,12.475,1303.0,1529.0,353.0,310.0,1380.0,1200.0,509.0,808.0,18.0,20.0,19.0,16.0,20.0,19.0,20.0,20.0,-0.6808160153053857,-0.3322545030827827,-0.2879825039984135,-0.30005418378556575,-0.5287747838772138,-0.5053409674060757,-0.2577228361837313,-0.3740456839929788,-0.3667934228311978,-0.1664187495944307,-0.3787913197203105,-0.13428409604577782,-0.4937750335887414,-0.283142785864291,-0.2842458834417547,-0.06138002152007597,-0.7114745657802487,-0.3185329553772406,-0.17753836184954078,-0.015952290479801297,-0.5966597962920172,-0.37146613771783676,-0.29052371403940014,-0.2596676074611627,-0.46281071443029026,-0.23984291158854562,0.07650884182719946,-0.061406322775900114,-0.37223073923852334,-0.24529763412514752,-0.21253779387120275,-0.15475236160638794,2
16.65,16.425,6.175,5.325,19.625,20.975,7.075,13.925,1089.0,1000.0,366.0,305.0,1307.0,1434.0,480.0,981.0,19.0,18.0,17.0,16.0,21.0,19.0,16.0,22.0,-0.4633394597448025,-0.3432432566168489,-0.5592066651685735,-0.1148762704232866,-0.25844365945353204,-0.12256849554698813,0.07988203286801918,-0.17940004874657223,-0.18345748232451067,-0.32728699304835057,-0.055581702563506294,-0.35914714451447793,-0.38216436276301524,-0.8476371521339738,-0.3724708203163495,-0.5751269958040331,-0.7818889406118917,-0.5115071111194701,-0.2615617285779654,-0.21207171825783777,-0.6757535896126526,-0.2675332137519273,0.14053240056186148,0.0822995917737375,-0.4283660259701888,-0.10020245798190876,0.2848289753538917,0.0750468275224302,-0.6074634091455225,-0.23494335746086328,0.20005489988492792,-0.029901683551246668,2
20.75,18.15,6.65,5.7,11.475,19.225,7.275,11.65,1267.0,949.0,418.0,382.0,704.0,1200.0,462.0,748.0,20.0,16.0,20.0,18.0,16.0,17.0,19.0,17.0,-0.16528208267650585,-0.042714421998217976,-0.019999896102854967,-0.18022681124824982,-0.07083573969958877,0.07678405343781021,0.0230260973870873,-0.25372845576276387,-0.34545374919682226,-0.1616712226467369,0.09304651144856135,-0.09379810060231204,-0.6672575434845769,-0.5175520826174066,-0.29882171934551993,-0.19485803185523898,-0.107600078847804,-0.0696140181495825,-0.07875980635497852,-0.07325637062652655,-0.3270492143108897,-0.2538664567166311,-0.3487065398115403,0.09013845911224029,-0.32358344500233155,-0.2719075381539965,-0.17271586444392087,-0.19165780713363648,-0.2925137103424593,-0.05123468922382809,0.19760227956344503,-0.2648010786467172,2
23.025,19.225,5.825,7.175,12.075,19.95,9.425,10.1,1393.0,1204.0,384.0,471.0,750.0,1282.0,666.0,690.0,17.0,21.0,15.0,16.0,15.0,15.0,21.0,13.0,-0.4048497241298124,-0.3174440556175903,-0.059782930203381796,0.04624670970506817,-0.4006849057996913,-0.24608741513244112,-0.04866044619012274,-0.1119434544675836,-0.31199481658020733,-0.20077845351974188,-0.09090386006234022,-0.20447795168654914,-0.6027543770346333,-0.44695198514426515,-0.4803659820238296,-0.29965932353150265,-0.40529766262770145,-0.16762320143302917,-0.1353572294628393,-0.11068865153665784,-0.4507981991438839,-0.2400431777883741,-0.3188975065103304,-0.14737691930315466,-0.6134171542554545,-0.4813808246390529,-0.40615166424268956,-0.3341465596033313,-0.5133594820350058,-0.18217454458202026,-0.13184937136462863,-0.1431515850209141,2
21.475,21.25,4.725,4.6,12.65,21.2,6.15,11.175,1365.0,1529.0,323.0,278.0,773.0,1330.0,395.0,766.0,17.0,23.0,14.0,13.0,15.0,19.0,20.0,18.0,-0.4802847555148993,-0.2914458141507087,-0.03350178064950101,0.05442576029632919,-0.8318465547143326,-0.24644893972475884,0.08471713165601993,-0.07049480153511589,-0.4688833378334416,0.005401660308835784,0.1507531023872596,-0.20880486036079646,-0.38607611482842336,-0.21542396670230227,-0.2563329236062982,-0.23832249142605744,-0.33233402714143345,-0.2531898579742918,-0.2083814705187996,-0.0571785693397844,-0.22972877883942253,-0.18940393855460946,-0.21235710118517706,-0.28069023054704,-0.4064817526647502,-0.08804939420393046,-0.3697553924957798,-0.3222206741178172,-0.5982550066058608,-0.2406224244111623,-0.09800722558439345,-0.13594860555153124,2
18.225,13.475,5.0,4.375,12.125,22.575,7.95,7.875,1274.0,934.0,307.0,231.0,818.0,1373.0,511.0,505.0,20.0,20.0,14.0,10.0,22.0,19.0,17.0,22.0,-0.469194235990836,-0.10236721981953939,-0.0450625842249546,-0.061120043444590454,-0.5733363758659161,-0.4612918216597866,-0.45527088675423233,-0.5809910432299535,-0.17238124340285127,-0.22038573846069753,-0.1609692038177582,-0.4102362555790176,0.0634173711098378,-0.010515820000302545,-0.031287529853544625,-0.44759696496425627,-0.3416361801768006,-0.07314372654053848,0.044553174146150246,0.04106033799631102,-0.3860394878107903,-0.1656597186419508,0.20401144602648608,0.1561075283113834,-0.4783456380622238,-0.18290553136674445,0.03281106431262029,0.025829027631036484,-0.42423615662022873,-0.12731051976333813,-0.2657924541255822,-0.16699140933394035,2
15.175,13.225,6.075,5.475,13.5,21.6,7.275,8.825,1023.0,805.0,379.0,325.0,909.0,1345.0,432.0,580.0,17.0,16.0,17.0,13.0,20.0,16.0,17.0,18.0,-0.3494306164709305,0.03744655569972607,-0.11268484663539462,0.04878508064839695,-0.27335026285738406,-0.15406203897730417,-0.22624781886228632,-0.089838620359139,-0.3735598888917562,-0.3183364792704827,-0.3460457112433453,0.02176932460560028,-0.33737740732845856,-0.37143745896307273,-0.32093275678959726,-0.5417689456269871,-0.5881935900546772,-0.3121166380164845,-0.24830486211215755,-0.24205515587876125,-0.3057852718478989,-0.09224022063768843,-0.13763478143019445,-0.20517170379393052,-0.25613268538330775,-0.03700265143840974,-0.047926813663804226,-0.40956792103286543,-0.5167348248169573,-0.06584730548176788,0.031445031010261026,0.09445794473786642,2
15.775,10.825,5.25,4.925,14.825,22.825,6.775,8.8,1121.0,571.0,344.0,314.0,978.0,1359.0,381.0,547.0,20.0,16.0,18.0,18.0,21.0,16.0,14.0,14.0,-0.2985473462407267,-0.07106427604754473,0.07833830985951395,-0.3780170516433618,-0.2547900886133062,-0.4084044019243345,-0.2863257061297474,-0.23909749793900442,-0.3067356388022022,-0.12206724178416606,-0.4791791907824442,-0.028651138838415722,-0.5029185383719565,-0.4305695041082079,-0.4229510152740528,-0.3092188503843373,-0.6764532451382447,-0.4022237248519324,-0.24655357935014408,-0.19164197081544007,-0.19156629126805694,-0.12806487901280103,-0.29060528187799806,0.055540296334387014,-0.3763891030152149,-0.5945312167191175,-0.29932153678391415,-0.42759991872241093,-0.41512673083714385,-0.022929777109538044,-0.25249137438581876,-0.36808083349578413,2
16.75,17.0,6.3,4.95,12.225,25.45,7.15,9.775,1101.0,1152.0,380.0,295.0,783.0,1655.0,441.0,570.0,20.0,20.0,16.0,18.0,18.0,17.0,22.0,16.0,-0.3109724282261149,-0.16538156660995626,-0.019955814501263883,-0.2531197715012962,-0.617059976410589,-0.2864042388184008,-0.2853092388508983,-0.34819140796131876,-0.4652230009637876,-0.194256790186203,-0.11560466019450276,0.011675944492990423,-0.4477632369476102,-0.12691148649391154,-0.36071248709471665,-0.4123610429485628,-0.4894586464999434,-0.3359963629262465,-0.3551853224931343,0.022838767919715054,-0.5451149623644251,-0.2609391412228083,-0.12855962328403234,0.13477482703350768,-0.37017719685877004,-0.42734646212774335,-0.2444501843067488,-0.18946520756081153,-0.21856641523906198,0.05918937739534927,-0.09809590091429193,-0.23402814335533717,2
