0,1,2,3,4,5,6,7,8,9,10,11,12,13,14,15,16,17,18,19,20,21,22,23,24,25,26,27,28,29,30,31,32,33,34,35,36,37,38,39,40,41,42,43,44,45,46,47,48,49,50,51,52,53,54,55,Gesture
5.725,2.1,2.425,2.9,15.0,24.325,5.125,8.0,361.0,118.0,145.0,160.0,1071.0,1604.0,308.0,511.0,18.0,13.0,16.0,11.0,20.0,19.0,11.0,17.0,-0.39606505583935486,-0.29638662464571325,-0.3834104855829717,-0.4077803713772739,-0.10589071151024797,-0.16408420624683012,-0.30275130945594736,-0.12844283378351015,-0.10407774597879238,-0.27003834269497284,-0.24030102613448,-0.031750153244147095,-0.06506201619175613,-0.06126429735416967,-0.25119794649091837,-0.14467531715174922,-0.6121006797205965,-0.3745001385130243,-0.2927351984328325,-0.318598606584304,-0.49015752630935905,-0.32713005498594516,-0.11212396896308109,-0.2101831679037585,-0.28680995548790916,-0.10970616660484116,-0.17066755600408828,-0.34298560724206634,-0.33085121647976307,-0.13735275539997305,-0.29835109265118986,-0.35769853073781915,3
3.875,2.45,2.95,3.6,9.975,21.5,5.975,6.775,218.0,136.0,152.0,169.0,624.0,1218.0,329.0,443.0,14.0,14.0,9.0,12.0,11.0,14.0,12.0,16.0,-0.1731139750804741,-0.11839517753634653,-0.3001766486363098,0.007957918855101252,0.05206258519520853,-0.2722486751181675,-0.16213554701716457,-0.3038283251711945,0.13374091709659056,-0.4277877222591972,-0.09084036259741474,-0.3176753230242895,0.1415514610984387,-0.27802396244400684,-0.09467550575128801,-0.2749855362911454,-0.3948207000394618,-0.3879677595542906,-0.2704625046631516,-0.36591261386337504,-0.10352580245789206,-0.22590766790831077,-0.09368039318124806,-0.24306094610546075,-0.26916611369861515,-0.16390405145092068,-0.3254260627205643,-0.31263749518539463,-0.30432530055317714,-0.1543347499754848,-0.3261968470593329,-0.2763723936860148,3
6.475,1.925,2.675,4.05,10.3,26.525,5.55,7.525,398.0,112.0,146.0,227.0,708.0,1589.0,320.0,530.0,15.0,9.0,12.0,19.0,20.0,19.0,19.0,21.0,-0.4493743352187903,-0.3830447115399482,-0.2670046136461371,-0.2505404836901799,-0.2717119646011931,-0.3230205872021231,-0.42978770058107174,-0.4176130422363902,-0.1438312532227097,-0.43709560564727323,-0.2868148193926119,-0.31194922173246353,-0.1123687452495149,-0.2465209187613083,0.014667538915072397,-0.24106030396645897,-0.35044006410613787,-0.02426038723509446,0.257075479185883,-0.21721718632507167,-0.2984801576572806,-0.31003199649440966,-0.1164913165548308,-0.2747430436611523,-0.23785560415008306,-0.3194945324358301,-0.23538681794991564,-0.26246088458436817,-0.5377513150740316,-0.286190210812382,-0.41389522702024273,-0.2296487758830604,3
5.15,1.775,2.5,2.875,10.575,20.9,4.9,5.6,337.0,112.0,139.0,164.0,682.0,1147.0,353.0,334.0,16.0,14.0,12.0,15.0,16.0,17.0,15.0,13.0,-0.3998646503569717,-0.29297027183264296,-0.26863975402933365,-0.25110264106964825,-0.45148291981127575,-0.5837721335682822,-0.44932068388600604,-0.3294251701722544,-0.33185374736842743,-0.3019684790714973,-0.4296741134131303,-0.2546215066530388,-0.3219408246173826,-0.3863103098227294,-0.24803795772889348,-0.20438619460304983,-0.34893216446745745,-0.07462288680741087,0.04150170664110469,-0.10758684602180758,-0.35150079976876825,-0.275140985535069,-0.1133568370378162,-0.3321396477756648,-0.5672801497975353,-0.1139465507173413,-0.1122672584177376,-0.33547051016177437,-0.08435541284297374,-0.21886047692963403,-0.0776276021358495,-0.1284376048871009,3
5.5,1.575,2.2,2.275,11.6,23.175,3.95,6.6,343.0,95.0,128.0,132.0,769.0,1408.0,233.0,409.0,18.0,12.0,14.0,14.0,18.0,19.0,16.0,16.0,-0.3457761966487732,-0.16743740208793348,-0.15008578666000041,-0.09551682831316512,-0.4156955460034024,-0.4967897371439392,-0.27228502796109416,0.0057876752066535865,-0.10531026436896102,-0.4778820307499871,-0.04775251870456842,-0.1299380418890479,-0.1827060212600937,-0.21818391176331323,-0.07799241289734984,-0.13067469804260154,-0.6040502405187661,-0.34761725785047454,0.12918844081910177,0.09196098038234421,-0.5748252399672973,-0.3599969128729792,-0.23521874001394436,-0.15770560243183096,-0.47996168876406553,-0.392456233426792,-0.24873518394342517,-0.22131932906967847,-0.3736090244396774,-0.24439136925665986,-0.16764873438121464,0.14159239185109135,3
5.9,2.05,2.575,2.875,9.3,16.675,4.325,6.65,398.0,100.0,132.0,137.0,564.0,987.0,229.0,424.0,18.0,8.0,8.0,11.0,14.0,15.0,12.0,16.0,-0.5532141710905363,-0.05144118661702999,-0.07198862686075294,-0.2644530613838622,0.1463826014722558,0.33386385878553093,-0.43288829510073185,-0.2300579913295038,0.09064012034680133,0.033125516868584844,-0.1659075738715891,-0.35953059129809256,0.15829921516076653,0.1789062742363264,-0.4990881602312484,-0.13936384145411793,-0.452147626557528,-0.5740116408058483,-0.3371278472432332,-0.28425799128032764,-0.20590026773329811,-0.417913872218553,-0.0588612408723183,-0.1516287469686097,-0.14054650015469614,-0.0718347239812467,-0.20899965484275124,-0.2167632406261285,-0.49753673858356223,-0.2926598869910338,-0.281785271358035,0.021290817390428308,3
6.65,2.175,2.95,3.375,9.575,23.25,5.1,8.275,424.0,119.0,144.0,176.0,663.0,1350.0,298.0,502.0,19.0,12.0,12.0,16.0,19.0,17.0,15.0,17.0,-0.5488546028689191,-0.32067404673337013,-0.08469642272858757,-0.18680465388526646,0.013190532543383643,-0.0018866237135464988,-0.09249331301859129,-0.1492122184816817,0.08316930908234046,-0.14915287850816394,-0.17137466714260458,-0.08020050082789731,-0.012375251061036834,-0.03507022147480894,-0.08398644803012613,-0.25699610558291897,-0.31271234134701104,-0.053549920418430166,0.3201069286893289,-0.05763359474216292,-0.3383334297876115,-0.1665787339005139,-0.023877528530596905,-0.07261121161656155,-0.2311069429571883,-0.14483463975479588,0.11502367409592847,-0.20669557280540618,-0.29747024314966247,-0.46160288945720784,-0.14090269153491983,-0.3459350308893967,3
6.275,1.8,2.25,2.675,14.15,28.925,4.475,8.35,416.0,117.0,126.0,169.0,1008.0,1890.0,304.0,549.0,23.0,13.0,11.0,15.0,22.0,22.0,16.0,15.0,-0.445791826856686,-0.03164353219496824,-0.1585354147546939,-0.11821028424601632,-0.5341286939285647,-0.4389165352408218,-0.2689519279707915,-0.23283293825203336,-0.3518134315355483,-0.36004678624929626,-0.26701621997446184,-0.06481812191325925,-0.48962244484110845,-0.30154365876747985,-0.16598885911893677,-0.00011045352781900783,-0.9649036971020061,-0.733750958985691,-0.5792563230974019,-0.32169472299565083,-0.6243779284169937,-0.303479956591312,-0.06829329210153183,-0.19830767991968168,-0.5488362859600343,-0.516454591860626,-0.06158955593045068,-0.22655274278180626,-0.30805836502504974,-0.2534786869491219,0.007317789817415929,-0.23139976116726563,3
4.95,1.625,1.9,2.325,12.375,22.45,4.375,7.5,341.0,104.0,112.0,153.0,853.0,1409.0,256.0,456.0,14.0,17.0,13.0,17.0,21.0,19.0,15.0,18.0,-0.7044173842833586,-0.6074710323688357,-0.42870676851289535,-0.26155340106878566,-0.3106685769350688,0.16960922173810186,-0.10284562848323091,-0.16605756840708072,-0.22479376585833233,-0.040567218157368905,-0.4277812370272633,-0.17616469284215597,-0.3894094958276645,0.045665732182859915,-0.15271554305775423,-0.1742903418372482,-0.5346771492793457,-0.0868407200854954,-0.2509150787516199,-0.0756371411872776,-0.48017594197065333,-0.28108467504104356,-0.2752875863935581,-0.07363171628683822,-0.23500216917547714,-0.3677043734969371,-0.08555883878247021,-0.36473437694310723,-0.3742423215559526,-0.0804200221992084,-0.22391269253163615,-0.1687704550899882,3
4.925,1.975,2.4,3.2,13.6,20.6,5.0,8.625,314.0,95.0,124.0,169.0,863.0,1355.0,231.0,546.0,18.0,14.0,11.0,15.0,18.0,22.0,12.0,21.0,-0.30510673716005,-0.27589065311260685,0.0035332066351599287,-0.241522193390374,-0.039610275018476734,-0.19787628626513362,-0.19822234009725248,-0.14178670040902314,-0.2092591953985925,-0.1501539840890685,-0.08857435642966004,-0.32239970177201815,-0.1279874272538008,-0.1448480201576962,-0.14322793707955864,-0.30473880801983316,-0.6016965436132917,-0.26619312697375946,-0.1392588333489372,-0.08412192183964813,-0.5335714393852792,-0.2822485149690364,0.011226539314381834,-0.09751639047987445,0.08298905894140901,-0.20179175610950573,-0.20365894156845218,-0.27651346591048337,-0.4487261211153109,-0.19041024348587382,-0.17646457396407955,-0.2265517057233483,3
4.575,1.75,1.7,2.925,10.425,26.775,4.3,7.7,270.0,86.0,90.0,159.0,630.0,1934.0,250.0,517.0,14.0,10.0,8.0,12.0,18.0,19.0,14.0,11.0,-0.12298304249719406,0.018706219357796174,-0.2836181232676797,-0.22666264832752725,-0.0828384868816959,-0.01130307573396617,0.015469229091802964,-0.1329033282662746,-0.1121415392423171,-0.022467360751420588,-0.05074437131308033,0.10536563505961578,-0.1451160230782922,-0.18413628077858188,-0.08456730284164618,-0.2279075704098308,-0.588260668336713,-0.5076096200438879,-0.34468845281073035,-0.2321864884714195,-0.6512389339161238,-0.4004457299189382,-0.06246278067038608,-0.15336540762500125,-0.07287172143750707,-0.038303048565102686,0.05420548750649381,-0.2303634217125628,-0.26269884129615884,-0.2147050121069454,-0.1550674956994314,-0.2725566208705393,3
5.925,1.7,1.775,2.55,10.275,23.875,4.875,8.05,422.0,85.0,116.0,159.0,638.0,1558.0,298.0,516.0,19.0,10.0,17.0,18.0,16.0,19.0,14.0,17.0,-0.46551307779366696,0.11329908984682162,-0.22856890060678212,-0.4205437144611794,-0.14211301019426564,-0.13090945206905014,-0.29373018598071504,-0.2871958140174281,-0.25318984728844024,0.10757106405534222,-0.08504041862325055,-0.20504768684439548,-0.35217752723265566,-0.13899526489985575,-0.2926495737652162,-0.2207279212493443,-0.3973893561270445,-0.300229277855797,-0.27628261713058794,-0.31581062910161956,-0.6270633744131979,-0.29796585569959505,-0.3909106412729156,-0.3257756458149176,-0.38003169614732035,-0.14369935649621224,-0.15628174191663377,-0.23294448120726824,-0.3207945249558822,-0.012404922250033932,-0.1452591018144088,-0.1871478006631767,3
6.25,1.95,1.775,2.7,16.05,23.375,5.15,9.15,417.0,102.0,103.0,171.0,1098.0,1582.0,300.0,613.0,14.0,14.0,12.0,13.0,21.0,18.0,15.0,16.0,-0.29439513680153634,-0.12906718310203297,-0.44638867958571243,-0.26059610048121556,-0.13681801669432153,0.07801826153167264,-0.349601791027739,-0.176964007103431,-0.2683819424315482,0.01323911538492238,-0.4371637260054644,-0.3344641597292445,-0.5438635231295104,-0.3619788753418575,-0.3297751281385773,-0.1932088860300459,-0.6591537062363813,-0.15766567282726718,-0.03677489143633402,-0.01527698863172461,-0.7531903653863448,-0.5666692442202758,-0.4384295039622777,-0.1734399157076176,-0.5156779171287545,-0.5086802855349358,-0.5408182200860746,-0.39508935199258965,-0.39531302044348055,-0.2017719288247919,-0.34536174924825946,-0.46058321768379795,3
4.775,1.65,1.7,2.8,14.3,18.85,5.0,7.875,342.0,92.0,93.0,157.0,978.0,1154.0,349.0,509.0,20.0,14.0,8.0,14.0,17.0,16.0,22.0,18.0,-0.300821082197152,-0.15786873651446742,-0.09089340564507373,-0.3271692838317515,-0.1750828150470031,0.17549300497366876,-0.014674957749274353,0.050912680123128023,-0.1767579933531755,0.15803063029180908,-0.3314137482294737,-0.013652988483824322,-0.35874932033980955,-0.2955497158033864,-0.35753177971678524,-0.17193616364968614,-0.6764610093958477,-0.3929891855988307,-0.18581794790614478,-0.21682984096689967,-0.4227905075584238,-0.07433989942331594,-0.06320516906918637,-0.17707258835434142,-0.5422189844504136,-0.14702743949232536,-0.12421522633800483,-0.33552329415787874,-0.47663415644922597,-0.2255554414794365,-0.19688878414950414,-0.29998053722998996,3
5.825,1.6,2.175,2.05,13.325,19.15,4.55,6.6,359.0,86.0,120.0,113.0,857.0,1327.0,304.0,419.0,14.0,16.0,14.0,12.0,18.0,22.0,16.0,18.0,-0.1486846868470671,-0.0676368870208675,-0.18151376926910917,-0.3542314602575083,-0.1010253147800386,0.19516173500111222,-0.10696339135093534,-0.24853674243210844,-0.2598931556021464,-0.13953685081151143,-0.15183499566226605,-0.17542767352152047,-0.06660729015683634,-0.04231630275561816,-0.1899261710776842,-0.12499883410974671,-0.5162591448305269,-0.27988777494041867,-0.1989845267793938,-0.20737888540813043,-0.4860052539396129,0.028738111254682182,0.16454141461805838,-0.28651870864272977,-0.43445901169290874,-0.020905115386231406,0.03580604620997312,-0.4195195932681173,-0.34529302001908285,-0.46700087592655953,-0.2369068108483107,-0.40575424826679674,3
5.225,2.175,2.475,2.7,14.025,20.375,4.1,6.7,301.0,97.0,127.0,158.0,923.0,1320.0,245.0,400.0,14.0,7.0,9.0,13.0,19.0,20.0,13.0,14.0,-0.04629380169655418,0.0026299132619482302,-0.10080350692310462,-0.2434959663648435,0.1558028263141029,0.006650236493411232,-0.24461088290635186,-0.31203280580577286,-0.0664163309143973,0.10434246699505312,-0.20465413086444803,-0.43456361296560303,-0.179779118339267,-0.21748848558519507,-0.12821934202605204,-0.27953517598657435,-0.515063264516971,-0.3114782242349459,-0.20537260539747168,-0.09254641619934184,-0.5553449590280565,-0.26618636495125564,-0.4049990484731691,-0.3224489870961473,-0.26213963039597493,-0.23867146098255526,-0.18543517591460143,-0.21153691412447892,-0.197295914666441,-0.16311877696842808,-0.40204841795560603,-0.24435543406865087,3
5.15,2.175,2.325,2.5,12.225,21.575,3.875,8.6,369.0,103.0,126.0,147.0,881.0,1311.0,251.0,523.0,23.0,13.0,13.0,19.0,21.0,18.0,17.0,18.0,-0.5910566704953467,-0.1514644099180705,-0.022830785427393054,-0.08259574936521862,0.2644503400253045,-0.10918041896832548,-0.24854889494682048,0.0014820998932373753,0.01590644226612508,-0.02431504974515749,-0.20966593337692602,-0.06251042433512799,-0.30028557227039054,-0.1785626158744156,-0.216126328764994,-0.1004682149668051,-0.7183748705763946,-0.47362390411581756,-0.3771643393802793,-0.2187894331143068,-0.3479432663288691,-0.22585575077198947,-0.04941830269296752,-0.12056073531333973,-0.20223942229569739,0.021626130843669083,0.08417076374495192,-0.13542152342674685,-0.1898427426043604,-0.12917306649234359,-0.11392799715818017,-0.03593604946490176,3
5.725,1.725,2.275,2.325,12.125,23.175,4.95,8.775,374.0,107.0,135.0,142.0,797.0,1473.0,324.0,597.0,20.0,12.0,14.0,10.0,17.0,20.0,15.0,21.0,-0.519154511458902,-0.18041611787881837,0.021745293017954612,-0.20410466022142354,-0.10085884630426846,0.005716205755041245,0.0113265180545951,-0.434568916210591,-0.19239071402867125,-0.10737336426617439,-0.11890825437013017,-0.269788256828317,-0.33278061482748683,-0.4690744035522466,-0.42740199152522906,-0.24427353699898943,-0.5835701903916898,-0.21497609050003022,0.38724066186685113,0.173837875051859,-0.5633818979156542,-0.3313984648783543,-0.11583339635314491,0.07692635230688166,-0.538750136751564,0.009867290383669024,-0.2729053942896378,-0.38271644580029174,-0.6850670644148026,-0.4205365470701844,-0.3442473030211767,-0.23177407105614098,3
6.675,1.675,2.075,1.975,15.575,18.2,5.525,8.15,426.0,89.0,122.0,119.0,1072.0,1065.0,361.0,554.0,16.0,12.0,18.0,16.0,18.0,18.0,19.0,20.0,-0.1505049580867891,-0.07899854032772137,-0.028474448652697475,-0.14687639923276843,-0.05817965833465906,-0.13876265397359097,-0.019676019220043087,-0.3742079857318741,-0.14825167964445854,-0.1088799258251532,-0.1662303307186548,-0.2614808407165607,-0.41145994743130526,-0.320914113927266,-0.3125665956447294,-0.20850345288453356,-0.6208020369521702,-0.3356818043178765,-0.4846337151742318,-0.3330638621345895,-0.3182460504841699,-0.654139641762355,-0.22448273746034447,-0.3755141184874566,-0.49956448421730276,0.04563890769438613,-0.08023280676030073,-0.1948131937708224,-0.4626438765818504,-0.18282664770536539,-0.017608376714979355,-0.2659285391869321,3
6.475,2.125,2.025,2.775,15.125,21.8,4.9,8.525,369.0,122.0,122.0,150.0,860.0,1346.0,334.0,538.0,14.0,15.0,13.0,14.0,18.0,19.0,16.0,18.0,0.04910796078860521,-0.22381453375026183,0.057816752472543836,-0.252071331596763,-0.36589084023558666,-0.240104940923281,-0.28056747761430395,-0.2982772229705747,-0.20832821684955136,-0.12967524732294544,-0.09195367577410253,-0.22955432021847746,-0.22768289501524996,0.04825750653838169,-0.11752561142940984,-0.07866877167882867,-0.27614177119204825,-0.4493053388572472,-0.05849017511604524,-0.1787433230514061,-0.4409638560874785,-0.49827506755932277,-0.14508237423475404,0.021837079027111368,-0.7090311066859213,-0.5840180487758783,-0.22543678501713169,-0.038129923956278504,-0.3164325410105085,-0.5001409510199196,-0.15291735875375867,-0.4742481602825605,3
4.225,1.85,1.825,2.525,10.9,18.1,4.85,9.125,255.0,96.0,91.0,146.0,748.0,1197.0,315.0,557.0,13.0,7.0,7.0,15.0,20.0,18.0,18.0,16.0,-0.13852946256383236,-0.1631079668457996,-0.17129251603201293,-0.2350583351864751,-0.039902896778358975,-0.16011733170423773,-0.24346297019467553,-0.1957062736050627,0.018395565453486046,0.04018042159969217,-0.36406824097787266,-0.22947624185550253,-0.174734879899347,-0.09068899360570612,-0.018302631929398735,-0.3134734047014244,-0.544777966604093,-0.252707769853803,-0.09358290952828405,-0.09062063503898327,-0.31387491420754954,-0.3396540713108318,0.028985037001295236,-0.07959391088652791,-0.1979872344305715,-0.45828361380629973,0.10315566696359742,-0.1886729928362173,-0.4051435776435592,-0.3945230721785714,-0.47143913340453386,-0.387392416954929,3
4.675,2.025,2.3,2.4,15.65,22.125,4.45,8.975,252.0,119.0,125.0,140.0,1100.0,1614.0,302.0,562.0,12.0,14.0,13.0,12.0,21.0,25.0,18.0,19.0,-0.1141648534936798,-0.1885382375392671,-0.2354858894251926,-0.20296732634714412,-0.2807883476732121,-0.0012332879175166998,-0.21237950129852734,-0.2825904554917054,-0.02486481430016207,0.15935831283822827,-0.46983765370065894,-0.21972782799528418,0.039012114161000117,0.1820108583115153,-0.3658936857447297,-0.03573316918388235,-0.7057089305969848,-0.38743354699163135,-0.2724228723901867,-0.35810349530953367,-0.4729287934118884,-0.2694252105637501,-0.175316671072525,-0.48722563971247174,-0.2530793010524158,-0.01644853448502939,-0.12691853112486268,-0.3865716729484824,-0.32398841222401276,-0.17301800532307451,-0.16688425509121294,-0.1557219672637893,3
6.2,2.85,2.5,2.75,12.625,18.0,4.65,7.175,433.0,204.0,165.0,169.0,834.0,1196.0,346.0,438.0,17.0,15.0,16.0,14.0,21.0,15.0,21.0,17.0,-0.4856319027434773,-0.1677409765878711,0.0075467984077605774,-0.1749940731390323,-0.593486089903452,0.02187647677605048,-0.09079404598427494,-0.19153665255894334,-0.39348666748593125,0.1494410351279534,-0.061994984273228956,-0.1656962998670038,-0.17738983078031897,0.19395228115889893,-0.21002673668152674,-0.10735054046521261,-0.455093623341563,0.0009451568708574281,-0.14053431517974038,-0.34254788086634236,-0.6124152872248178,-0.3529667615089191,-0.17642309657481145,-0.1327190022640587,-0.7532104396432322,-0.15075760796986665,-0.6473758547892091,-0.6461818994318091,-0.36326473404714255,-0.27139029471223386,-0.2546391069050962,-0.44754119620620203,3
6.325,1.825,2.05,2.625,13.4,20.45,4.3,7.25,412.0,111.0,118.0,170.0,872.0,1396.0,289.0,462.0,13.0,13.0,13.0,15.0,16.0,21.0,18.0,15.0,-0.16402957812389077,-0.06472183353840952,-0.05868807713213056,-0.20857570867971528,-0.468885377244568,0.025472773866363187,0.07078369165887016,0.07236557415075258,-0.3045401976744773,0.04213492177281388,-0.14963697904473122,-0.21678057747204713,-0.5564121539253428,-0.33062127970956584,-0.10766088048237633,0.023677944624138053,-0.5155774056095228,-0.13080801759998972,-0.3165155058205773,-0.33959404267524834,-0.5521286236252773,-0.2337769042953741,-0.2955792171471183,-0.27547451184449495,-0.2860234275332669,-0.12802704032392553,-0.073085753783078,-0.3816920626026169,-0.28592346982319283,-0.117654769265076,-0.1400328803160173,-0.4257545745004421,3
5.925,1.875,2.925,3.125,17.875,25.575,5.575,9.425,383.0,106.0,158.0,212.0,1231.0,1595.0,358.0,675.0,18.0,12.0,17.0,17.0,22.0,21.0,19.0,22.0,-0.4728473024241411,-0.2192814079482751,-0.24301826126517975,-0.3989266833992546,-0.2204016142415036,-0.21889573028501064,-0.18938919331020054,-0.5467289388779938,-0.20282163455391075,-0.21977582957028224,-0.12702934199619667,-0.5243489421273102,-0.5048365144434357,-0.4213743972698234,-0.28134706529838405,-0.41716178988878794,-0.8571576850779665,-0.6902790186922516,-0.47697593497909946,-0.4219561223429671,-0.4103057776443021,-0.2962142153954997,-0.08599601419957353,-0.38878766970713585,-0.46088416893218476,-0.15794420336713,-0.03527594707294834,-0.287926217920692,-0.6454012658670795,-0.30085813223546864,-0.3975317924594329,-0.31910122743651337,3
6.1,2.325,2.525,2.625,13.675,23.075,5.425,8.975,372.0,110.0,123.0,152.0,901.0,1394.0,305.0,599.0,16.0,10.0,11.0,15.0,19.0,18.0,13.0,16.0,-0.2047739620657165,-0.1107745923570983,-0.08109760515414877,-0.21070403749650685,0.28589932408794183,-0.347696402985887,0.12172580783572261,-0.4204722922151673,-0.02238342285665747,-0.19461726360385925,-0.12967471100452893,-0.2108383497065503,-0.25216873032019904,-0.10639589643269366,-0.25857833660560764,-0.1952831312587522,-0.6149829830410507,-0.5339414882848481,-0.2485731568150602,-0.0762773518763809,-0.3220921968848804,-0.28332999343217613,-0.24578132507936407,-0.12152079018913514,-0.2805463296872146,-0.26978262733312386,-0.24681175715327686,-0.3118427258615875,-0.6990583829127086,-0.4802233627402436,-0.17614441453921484,-0.2141285120462614,3
7.05,1.7,1.875,2.7,15.05,23.7,4.3,7.025,485.0,100.0,124.0,159.0,952.0,1670.0,292.0,468.0,18.0,13.0,17.0,11.0,16.0,23.0,20.0,20.0,-0.5282572301787125,-0.20668486891361615,-0.10626515002880368,-0.11088072855285655,-0.08677087730953961,-0.22258631548913477,-0.07559534702235171,-0.3204462732860466,-0.28903181504526143,-0.09141286113562361,-0.08656253028997543,-0.3043840724415051,-0.10683862378996678,-0.3199812039192979,0.03158270774455558,-0.4165394654300622,-0.5398648064289984,-0.42094058962435815,-0.1555437511220569,-0.3269462478403333,-0.5272740084614712,-0.08200461981868201,-0.11436820355686453,-0.33089875368488825,-0.6282549520352497,-0.2760905430098983,-0.26327747059785084,-0.34699958461024777,-0.23856234362211803,-0.20097590536945645,-0.02479357073115687,-0.41581429644719753,3
7.35,1.95,2.45,2.55,13.15,22.475,5.875,7.2,525.0,128.0,149.0,155.0,825.0,1302.0,377.0,485.0,19.0,14.0,15.0,19.0,17.0,15.0,17.0,13.0,-0.7335165854019536,-0.44577103202822577,-0.41632592509924315,-0.3285980854955218,-0.4899930678061499,-0.3895837355994811,-0.16130331538764922,-0.24094943344958822,-0.3680573506900987,-0.17626711736947745,0.1283826575667127,-0.1592880671215238,-0.287857789870694,-0.21218379983213906,-0.049746416088974704,-0.3787607374698287,-0.40382131699119134,-0.24881620807135232,-0.2725827015363189,-0.3522468554596212,-0.24440792350284712,-0.11571300796522321,-0.4058976592411464,-0.28629601210453376,-0.4142988865331973,-0.054128076225180156,-0.06824215957886577,-0.36794493812095913,-0.5050181440290251,-0.5288183491202015,-0.331994162486225,-0.5375717882495085,3
5.075,2.1,2.65,3.2,12.8,17.125,5.975,7.525,324.0,128.0,145.0,182.0,874.0,1054.0,367.0,473.0,16.0,13.0,13.0,14.0,19.0,22.0,19.0,20.0,-0.26283944521481795,-0.09177690631903039,-0.04203489907784561,-0.11173912080765139,-0.3511825273231746,-0.27128835334545476,-0.12419318379713705,-0.1564360330878499,-0.38514122114483607,-0.5274910193996755,-0.3335191632092091,-0.4888864465932205,-0.3049222714753328,-0.15067128097220106,-0.37235567212674503,-0.29320245905891607,-0.5368209755442125,-0.4249286115812804,-0.211031186879966,-0.4993923783272451,-0.2375795513793371,-0.13769740962750146,-0.09515837658091757,-0.4678347163346031,-0.43229036373078805,-0.3368986034136803,-0.23951530930738246,-0.39321391556248736,-0.28602675848716497,-0.3172278188802819,-0.09703445300031083,-0.1661738629479395,3
3.75,1.525,2.175,3.175,12.175,20.7,4.775,7.8,245.0,72.0,123.0,196.0,622.0,1240.0,293.0,514.0,18.0,9.0,15.0,15.0,15.0,16.0,16.0,19.0,-0.39212557518803365,-0.2391792324929803,-0.05285882205338446,-0.08346872591452266,0.12837331325892842,-0.07736355185150735,-0.3782276151029556,-0.03810893798913709,-0.1672297361204712,-0.3978509629060864,-0.10114485756762369,-0.3419235641998149,-0.2753580873918828,-0.036018659072819426,-0.04815032459021659,-0.1937828221200813,-0.1796205574879486,-0.2806497399842811,-0.22270314736295305,-0.23389552905549757,-0.33087784926745895,-0.24495551743081243,-0.5622036711322358,-0.02722163782914736,-0.44075566370394503,-0.324017838368596,0.15239528533830615,-0.123180741366796,-0.42898605178546045,-0.44846902464335386,-0.08604599126824124,-0.1583583362850994,3
5.8,2.4,2.275,3.3,11.5,20.2,4.35,7.95,352.0,140.0,117.0,184.0,715.0,1300.0,263.0,505.0,14.0,13.0,11.0,12.0,12.0,15.0,18.0,17.0,-0.1577927205556259,-0.11546646689520143,-0.2622874318345788,-0.020631503930693133,-0.23320284681319783,0.06953069815408372,-0.17590383401089316,-0.24264077648481555,-0.18401137783800783,0.1285398845488665,-0.4560098485420518,-0.4713937219591469,-0.08878591194017553,0.056290398103564475,-0.17138542055409375,-0.4401020971891034,-0.3542762051432243,-0.2412863287790393,-0.23226031285008827,-0.033973284356154744,-0.4116399808230867,-0.36656969819123225,-0.3001169087442433,-0.3874629577307726,-0.2942371399752828,0.0004890421431176956,-0.28525812624439467,-0.21922309613204174,-0.2905960129762386,-0.21669724705348853,-0.14692380942952446,-0.2067658167172687,3
5.575,1.5,1.85,2.625,13.85,24.525,4.85,7.0,406.0,85.0,98.0,172.0,894.0,1706.0,305.0,429.0,19.0,10.0,7.0,17.0,16.0,21.0,15.0,13.0,-0.6732555040400714,-0.20613727742134683,-0.052573855632771206,-0.01624030555096226,-0.3394530628595125,-0.06372431154596545,-0.019621936806212735,-0.05648918616118668,-0.07360976158238691,-0.23655554264151074,-0.15323454258594357,0.024630285525902566,-0.3764956142669571,-0.19545847896375088,0.1479817438715233,-0.11012422274341611,-0.5567909205326182,-0.6005362991316079,-0.40826736819208803,-0.27209116767086533,-0.5068863462394473,-0.2884906962690738,-0.2187590484118047,-0.3641036846960825,-0.3172837347202393,-0.03222470388910536,-0.18369526582020823,-0.19289847848990913,-0.251481676622749,-0.14988583513151546,-0.12079124280278325,-0.2710110622670495,3
5.725,1.65,2.125,2.325,14.075,23.275,5.475,8.65,382.0,108.0,126.0,136.0,949.0,1507.0,381.0,579.0,19.0,11.0,18.0,16.0,19.0,12.0,18.0,22.0,-0.36264432456104634,-0.12567101946085957,-0.21078008418065058,-0.15295834430625901,-0.44837055987696095,0.002890856990169707,-0.11790830347045667,-0.11966665533670576,-0.2232584835468075,-0.11303540201900783,-0.0244832833550214,0.03947755031691288,-0.23312257923529905,-0.009863648146353142,-0.10762351503335829,0.07991143152241277,-0.8461640675583635,-0.8213783270296477,-0.8090075655965508,-0.4259079296381605,-0.9566901586793897,-0.923079150030342,-0.850042861908796,-0.5800596233624695,-0.6615562700861259,-0.4075118847237583,-0.6176619360294509,-0.34242118879513256,-0.287290711373033,-0.06498014629912698,-0.17231898311525512,-0.32402249832189567,3
4.975,1.8,1.975,2.05,12.85,16.25,5.05,6.65,324.0,101.0,112.0,132.0,883.0,1021.0,333.0,452.0,15.0,13.0,15.0,14.0,20.0,18.0,15.0,15.0,-0.33177744947091103,0.05737370310553753,0.16875682116544316,-0.16810967031429935,-0.29136866917877774,-0.09060241864944811,-0.06182360434501073,-0.07251287516929107,-0.29840641058368694,-0.3060527989049447,-0.12311254318147224,-0.2088859472929837,-0.33551215854391053,-0.21575453654272522,-0.27266248417018907,-0.37106844248794424,-0.7214739598356562,-0.45455674563278686,-0.5472067627740413,-0.37797269304845427,-0.21816079284272433,-0.05460021149508895,-0.17539834560889644,-0.27112620724844494,-0.7257054391538811,-0.6306333445729083,-0.6086357564047059,-0.4277518185370578,-0.2533879633742084,0.043385840874754215,-0.22067198547661293,-0.2385452274737573,3
6.175,2.15,2.325,2.725,14.075,18.15,5.45,8.475,388.0,98.0,102.0,167.0,955.0,1230.0,336.0,558.0,16.0,10.0,9.0,8.0,20.0,18.0,17.0,15.0,-0.4891724246622395,-0.42612896947951107,-0.3577170024731483,-0.4741625783727551,-0.04879518718137133,-0.20996533216034152,-0.25326782031335054,-0.10188336418782609,0.09396654969026111,-0.18263741340940373,-0.09162735541458158,-0.3822168139160563,-0.09266611330241077,-0.02954402007044876,-0.11710922076274469,-0.31200890256099806,-1.0057474278171867,-0.640595299225511,-0.24502229373162637,-0.059327327784323425,-0.5043406436271033,-0.5031058812069602,-0.246113995178091,-0.30173898955812356,-0.3471978047650194,-0.3675970306588613,-0.38182356212350166,-0.15456435784915185,-0.44419784475269586,-0.2036858511162999,-0.38266786389908614,-0.32128122464133235,3
6.6,2.425,2.2,2.9,16.25,22.2,4.85,8.5,398.0,140.0,116.0,164.0,1143.0,1457.0,282.0,556.0,11.0,10.0,16.0,14.0,20.0,17.0,12.0,13.0,-0.15620973985207726,-0.0775971623236491,-0.07886034641891763,-0.22756812010278177,-0.26068737047052765,-0.13884767940647696,-0.33386574486952764,-0.41854820390557934,-0.20799694055492624,0.03611173031691215,-0.32191958430537043,-0.45592494901292663,-0.1622637751418032,-0.17036167597049212,-0.2550623406172743,-0.45131257740508257,-0.6637117305555081,-0.32799681815616294,-0.3634822005655245,-0.2894828290968624,-0.43007578309637434,-0.3669234591487921,-0.19994052842269597,-0.16805174260055525,-0.2804114219871466,-0.3234597933413324,-0.34517514154466544,-0.3717902096441983,-0.43975563599760575,-0.12696769529056445,-0.36303536353764715,-0.3737037589818377,3
5.975,2.0,2.15,2.625,13.275,17.1,4.625,7.375,432.0,122.0,134.0,154.0,933.0,1176.0,290.0,468.0,22.0,15.0,13.0,16.0,21.0,15.0,17.0,14.0,-0.5554563421083938,-0.07161282697130983,-0.20281275821369799,-0.22285123070769594,-0.20552015038533583,0.005357784954611224,-0.30757780758262326,-0.3582394919277896,-0.37651207801179626,-0.23744184905712165,-0.45451372537723755,-0.34910752145018986,-0.17004601052153662,-0.17212721157840954,-0.34390196505960674,-0.20896484860197911,-0.772401816442664,-0.2039744279115393,0.21814377095085294,0.07743435658041635,-0.3912408758279074,-0.06543413431473878,-0.17428267635985317,-0.3289690669685908,-0.3850212604368681,-0.07215577243335376,-0.2031083187764966,-0.44870116508639923,-0.28499555215508354,0.02170007322453491,-0.11630732179139322,-0.06307471639283141,3
4.95,1.9,2.05,2.375,8.725,14.35,4.775,8.9,356.0,118.0,120.0,145.0,601.0,763.0,310.0,579.0,17.0,11.0,13.0,16.0,18.0,12.0,20.0,16.0,-0.6510452582581943,-0.08168286839088165,-0.1140555388554498,-0.28322531808469226,-0.3652387890440845,-0.01135000128757066,-0.01392946740647475,-0.17008260094335376,-0.32876713482201686,0.018974941143605286,-0.21509863679845861,-0.24682406079197455,-0.47357001689049094,-0.26584033041010646,-0.4898905668575332,-0.300067287564064,-0.4360022631125064,-0.3437349498097633,-0.13545206560302084,-0.2967693222621691,-0.07563222837611326,-0.11773210417094525,-0.2507369547895431,-0.1368623695181985,-0.3875462641508624,-0.09700417930972847,-0.1413004202310101,-0.38885322066771205,-0.4255987709175368,-0.08812434882194153,-0.3795535485327404,-0.3183912810440898,3
4.5,1.625,2.05,2.15,8.5,16.525,4.1,8.0,261.0,76.0,114.0,118.0,573.0,960.0,285.0,499.0,14.0,13.0,13.0,11.0,17.0,18.0,17.0,21.0,-0.2620933616467119,-0.31260638862664714,-0.06870071857257987,-0.1565229880917516,-0.017676570402672214,-0.08677008235932024,-0.06561661560386485,-0.37350850975625993,-0.22176486854955282,-0.10121001581241594,-0.34933812002916487,-0.08204873606974802,-0.16317946929951443,-0.15295295719131105,-0.2619675412365149,-0.19429148039243965,-0.7015912407235679,-0.1751498246328638,-0.07478391350220402,-0.06909162172674688,-0.3963590224599735,-0.3317431173676777,-0.37237306982104834,-0.09328269474390383,-0.4218409301920386,0.010372442801903022,-0.11094340722951704,-0.3481049599510602,-0.26715575395127733,0.0719154785426237,0.19733410326786802,-0.209913189791468,3
4.525,1.675,1.825,2.35,9.45,25.4,4.525,8.575,276.0,99.0,115.0,135.0,538.0,1655.0,319.0,578.0,14.0,10.0,14.0,12.0,15.0,22.0,20.0,16.0,-0.24259997084580776,-0.24942320709549498,-0.008896391032011767,-0.22178278825685985,-0.2457277925754794,-0.32205049610756925,-0.23662013309598362,-0.5011180523807477,-0.2631143113930428,-0.166596860319696,0.07726391125939995,-0.13007716590823937,-0.21667654396217495,-0.013534685720166821,-0.23703196371916704,-0.054734052302889184,-0.08226054344671398,-0.13448132236868,-0.08561193917655582,-0.14977041056135781,-0.561489534899468,-0.26905764289319406,-0.3339802548761727,-0.2119665769192736,-0.7082532366288853,-0.3171212177731217,-0.45756137622218723,-0.4675896027608748,-0.333266965727162,0.038768998885516485,-0.0984124659767146,-0.2699412751208763,3
6.375,1.825,2.1,2.65,9.3,18.825,4.875,7.35,372.0,94.0,131.0,141.0,555.0,1183.0,311.0,441.0,12.0,11.0,16.0,8.0,19.0,18.0,17.0,15.0,-0.08518003656529562,-0.08295570981040468,-0.020618798344180567,-0.09874347892998166,0.03363029978017242,-0.30923316819567964,-0.05247317087913966,-0.29339148326214265,-0.49607124377472195,-0.34134714027788243,-0.3540009083524664,-0.18289799509689753,-0.18794448306535938,-0.008627151215331946,-0.15630494466696077,-0.041426781732837085,-0.16551098255188015,-0.17656523328268345,-0.015867698997381354,-0.10256646337591899,-0.5589542591753792,-0.4845089278126714,-0.24444481703563253,-0.03159429111183776,-0.5135545367103252,-0.36212699750457433,-0.2808132944440238,-0.23226299600748765,-0.4061271187373189,-0.2464420335738211,-0.059201156248723484,0.11845088752145963,3
4.975,2.05,2.475,3.1,9.85,17.25,5.0,6.05,311.0,107.0,128.0,182.0,637.0,1155.0,317.0,362.0,22.0,12.0,13.0,13.0,23.0,19.0,13.0,17.0,-0.20886284877262115,-0.13144831319385072,-0.1892505910402288,-0.1332280946142665,-0.17262335895825875,-0.40488726556425014,-0.1325365448328658,-0.032452343511992665,-0.23688380160617026,-0.1578778549265035,-0.14659693430374013,-0.009976043729580527,-0.3008956324142284,-0.33291116679088095,-0.057314124769886815,-0.08666044877823965,-0.4749968436592477,-0.2725045370194399,-0.25047887047295053,-0.17392117819237946,-0.29501639928568996,-0.2585727012214524,0.021327230808397185,-0.035672866156889256,-0.31416824313289077,-0.14066337102818993,-0.17552508986194296,0.133366185076531,-0.21546484621471493,-0.17511138266206036,-0.0786602093408047,-0.029622832474891135,3
5.0,2.5,3.225,4.1,12.45,27.025,6.6,9.825,323.0,134.0,168.0,243.0,819.0,1695.0,405.0,671.0,17.0,14.0,14.0,12.0,19.0,18.0,16.0,18.0,-0.806433040625019,-0.6120235087282994,-0.3717801277556875,-0.2179736695622141,-0.29288806281390956,-0.3830705522842837,-0.2664142591562667,-0.32351779335411046,-0.4301413414891202,-0.42743680668925293,-0.3954843210218136,-0.469538864293934,-0.50677198458183,-0.3079907600730622,-0.43797119762281206,-0.43269492272977983,-0.3527876214476146,-0.11302730355429809,-0.19272655168982972,-0.20914398799084535,-0.32034837869212673,-0.17302862725365128,-0.26366645664082894,-0.21016619250123797,-0.4831580692540099,-0.29902172916809505,-0.37852107290724396,-0.3175705941156044,-0.43623672412414083,-0.1429820220480098,-0.20022131729681997,-0.11696227598786825,3
7.525,1.925,2.775,3.85,14.35,23.25,5.15,10.075,513.0,106.0,164.0,243.0,946.0,1427.0,304.0,665.0,16.0,12.0,14.0,20.0,13.0,17.0,16.0,17.0,-0.49124775427963824,-0.2637521298252726,-0.005359288727913287,-0.14146481932019164,-0.07852366772121103,-0.038706317521399,-0.1301061672416382,-0.18620223382554055,-0.3242218433674999,-0.14924176846165838,-0.23769582233303743,-0.08675309038236603,-0.6260822494367537,-0.36609100384273185,-0.39724950311615886,-0.3591005705260705,-0.5322140564772622,-0.30025611811387953,-0.4137831581345022,-0.4272916009150773,-0.22977865650957424,0.05554437433604789,-0.13881070618783584,-0.022383521885948766,-0.3701671966096721,-0.0069851917603423385,-0.057105920446188986,-0.22063501360569612,-0.22376330444621956,0.24230079153284673,-0.29787263411800796,-0.2672539945522601,3
6.625,1.7,2.0,2.525,12.55,26.6,5.025,7.8,404.0,118.0,120.0,152.0,795.0,1741.0,319.0,475.0,19.0,16.0,14.0,16.0,17.0,19.0,22.0,13.0,-0.16568086871788967,-0.24793621451392567,0.10429896672768935,-0.33105150144300377,-0.24948279585257496,0.4329650585156257,-0.17030660057008135,-0.3134766432939126,-0.1619863012298646,0.08895444439781824,-0.12357598444169024,-0.32462865450830314,-0.2707439820552701,-0.37176383266016627,-0.15171521892924303,-0.24868244098441777,-0.5838724313867283,-0.3437466721003903,-0.3666253329111622,-0.3717056596298683,-0.6561469449824299,-0.2308111227078748,-0.34743693094686134,-0.3726402751112363,-0.6408229908775994,-0.3310020312666079,-0.3748834437324393,-0.2312324671271079,-0.29475869134334587,-0.26110811017171387,-0.28427197410501615,-0.11853130130571839,3
4.7,1.525,1.825,3.125,13.975,24.625,5.0,9.9,260.0,73.0,89.0,155.0,857.0,1657.0,303.0,681.0,17.0,11.0,9.0,9.0,17.0,17.0,17.0,22.0,0.053567280238091146,-0.1133076737207467,-0.05956541037448899,-0.14675110424646484,0.19919402709385142,-0.19683238681023515,-0.07197380866451746,-0.22454318598496045,0.12586758311853807,-0.008495033593766367,-0.09315442011096867,-0.19970657634695824,0.13275715746320793,-0.3957146415736605,-0.04283906581588531,-0.5041109931116006,-0.6841256482500877,-0.4783946047073862,-0.3951705966379953,-0.19119110960217175,-0.5975844943122521,-0.3026322196702916,-0.33592742279357296,-0.07562026735815755,-0.29814255811618245,-0.2866801536812218,-0.24620759610561274,0.0016806216482827994,-0.5810781929200138,-0.24494420261431243,-0.37897575237449876,-0.38247653814401467,3
5.35,1.65,1.975,2.125,14.825,19.7,5.05,9.175,362.0,106.0,114.0,107.0,1045.0,1401.0,323.0,648.0,19.0,18.0,11.0,8.0,20.0,20.0,17.0,20.0,-0.4621922905736803,-0.12487639001405616,-0.21302475557499093,-0.2579353219166647,-0.5698939712004852,-0.21113881984143645,-0.30623903710892886,-0.3286251813396222,-0.24164900621240182,-0.01561956909584984,-0.32434064387348394,-0.10129358354093035,0.025748047453676724,-0.13831000385972375,-0.1101039776828301,-0.1420598592544992,-0.8439909348598773,-0.536507566068171,-0.39437902410109593,-0.4766200873549971,-0.7879316204215087,-0.6044919252607737,-0.44036672781594877,-0.42420854725528595,-0.5174041447138339,-0.2750662558141295,-0.22456191669552825,-0.15289640009176333,-0.6906591676387267,-0.443746626671609,-0.3706150156759006,-0.100362544074967,3
6.475,2.075,2.475,2.925,12.025,19.7,5.0,8.55,418.0,113.0,117.0,147.0,802.0,1080.0,311.0,531.0,15.0,13.0,12.0,13.0,20.0,12.0,18.0,15.0,-0.5580330185092611,-0.22911269660069628,-0.08311612940103348,-0.15446164270882884,-0.11142845264398679,-0.25935962413357955,-0.12696719959043545,-0.2629017773845519,0.15746332899168594,-0.3558144045334741,-0.272721398228137,-0.11761102996365974,-0.11492144142862128,-0.15104275731766484,-0.3330630927101995,-0.16901902996496973,-0.5687764677938361,-0.1618045150331308,-0.1262379860909109,-0.18143409185183587,-0.05922941444252726,-0.26823586584630565,-0.08516401535257348,-0.13857215219423394,-0.45576167368665793,-0.25672929951627854,-0.3111415240073108,-0.29536075662009825,-0.20704180772567018,-0.0745760882524143,-0.10171989055503132,-0.19495611459346895,3
6.4,1.9,2.5,3.15,13.975,24.925,5.4,8.325,433.0,105.0,134.0,176.0,888.0,1657.0,347.0,521.0,17.0,13.0,13.0,15.0,16.0,15.0,17.0,15.0,-0.6396171251389409,-0.3068949213373922,-0.09432788852432573,-0.08316941093423282,-0.041253726516179215,0.009008925449663698,-0.08510464737988806,-0.4987198757690928,-0.11361210554828599,-0.1520648390248438,-0.21651581938079806,-0.4540582401490228,-0.3429296329113729,-0.23192923746686972,-0.43636116149948095,-0.42774283801927787,-0.5318677728758052,-0.20032198781955418,-0.443826713633916,-0.2684448499903775,-0.5938030742941386,-0.2888522592484108,-0.6094325205558915,-0.48592935847964147,-0.4281417873337309,0.0031516943440030964,-0.23897022064131992,-0.35674012243096953,-0.37264191354556037,-0.22185927237727887,-0.15372129393575937,0.00025209366113277814,3
6.525,2.2,2.6,2.95,15.125,26.2,5.725,8.225,426.0,129.0,165.0,180.0,911.0,1691.0,382.0,548.0,20.0,11.0,17.0,17.0,20.0,19.0,17.0,15.0,-0.4122190868475835,-0.16224683803620227,-0.05828655737385393,-0.1624485043586258,-0.2858515676871006,-0.28974002458279535,-0.22895996146570555,-0.23957137286995434,-0.509143579098302,-0.3454667745388116,-0.2569407655291009,-0.3813298558352636,-0.36630491942937743,-0.2269454504104684,-0.4087992086527089,-0.42077432142125526,-0.4883221586387755,-0.1029700805240055,-0.06395711200323233,-0.1436205227895615,-0.4613275408363131,-0.1159277130716017,-0.3442416870911332,-0.4562087175221683,-0.6281258286562201,-0.3632392133045378,-0.24624768060069432,-0.4191529277950024,-0.4011453190951316,0.010153649971109522,-0.027127067181713,-0.209001289359932,3
6.775,2.475,2.75,2.875,18.2,29.125,6.0,9.475,464.0,125.0,147.0,154.0,1296.0,1969.0,402.0,567.0,18.0,15.0,13.0,11.0,18.0,21.0,21.0,16.0,-0.29871159122903823,-0.025166652375689633,0.10503899817856852,-0.3234913763213533,-0.22273307399850575,-0.3570739021345045,-0.23647553410726574,-0.1798869543504963,-0.11929531343157017,-0.2703535580822425,-0.20603775086321827,-0.25832354952383296,-0.18349686253049396,-0.37008505225424837,-0.21352994582573176,-0.1765072819506993,-0.7066644394502777,-0.43173069681604753,-0.2746131362001206,-0.3524049281777782,-0.8083238299274838,-0.5509262509442296,-0.7203414617968428,-0.5729223967003575,-0.44981690491548854,-0.2708780012368516,-0.5967657932560069,-0.23400757904439906,-0.2728369287706009,-0.23931619815750405,-0.30028507885649786,-0.4925602474631278,3
5.35,1.95,2.35,2.775,16.525,28.25,5.475,9.675,346.0,106.0,118.0,145.0,1110.0,1790.0,389.0,611.0,19.0,14.0,8.0,14.0,21.0,18.0,18.0,17.0,-0.3042459577670515,-0.054345245174176306,-0.15439824265995844,-0.29453938878218827,-0.10223595233995718,-0.3161690620183688,-0.12635857815421325,-0.022409269579956998,0.07021016656214384,-0.3317909689587119,0.012649864112688501,-0.42039751852301466,-0.07952780091735084,-0.36822657839468964,-0.11114674401954802,-0.46211657086546176,-0.7950559736128793,-0.6080316920093459,-0.35436434216465623,-0.29850658292017396,-0.602323128632162,-0.47761584935576074,-0.43916539813808947,-0.46728338228620414,-0.6209598643365719,-0.3871492351291705,-0.620455644133272,-0.4984777117771612,-0.5410713435688349,-0.3576443239366501,-0.4232168387518776,-0.272741941415711,3
6.325,2.425,2.85,3.0,12.175,20.05,4.725,9.025,390.0,141.0,163.0,186.0,817.0,1208.0,299.0,582.0,13.0,13.0,13.0,16.0,20.0,18.0,14.0,14.0,-0.3226516308369268,-0.03326284435522755,-0.1330521160782166,-0.3379876736195219,-0.32610566772777577,-0.43819023546481406,-0.1470524720251654,-0.09609062917014173,-0.2579316964726962,-0.33401397468085264,-0.19849169092778637,-0.051838788489434136,-0.3738551883474949,-0.23425960761297224,-0.21881674938162998,-0.13930181856202928,-0.563845831929653,-0.49890597175974105,-0.1701692677713158,-0.11681270560792029,-0.3198520538661846,-0.3134854303008904,-0.15699765279244657,-0.31761018701567045,-0.3051554065244829,-0.12423411535696187,-0.3874390653730859,-0.05627409701751942,-0.38776294910010917,-0.035904708730131754,-0.12233077044280097,-0.06042768609982358,3
4.25,2.25,2.625,3.05,16.025,22.5,6.3,8.5,186.0,118.0,139.0,186.0,1072.0,1391.0,399.0,513.0,15.0,8.0,11.0,12.0,18.0,22.0,18.0,14.0,0.0983534022583539,-0.10794666329335101,0.11844870351703335,-0.24549105268819083,0.013208934309961206,-0.017836680094136918,-0.06383660426600916,-0.31713816164191255,-0.12161555014031816,-0.14572879985399442,-0.22855767210775588,-0.20966711452737294,-0.2743203238052604,-0.09353793353489198,-0.08702377075735233,-0.3002330486551714,-0.919172655659888,-0.8953484680475253,-0.6427323720264171,-0.49328561132194626,-0.47902545080268555,-0.5140474867836953,-0.35880332449596136,-0.3503869743840337,-0.53223649887269,-0.208657069003488,-0.5907332210618296,-0.5396323701070566,-0.5163293926880967,-0.44741644902302646,-0.4366383836540755,-0.34555598299915147,3
4.825,2.1,2.175,2.875,15.575,26.025,5.425,6.175,321.0,115.0,110.0,180.0,1037.0,1761.0,333.0,359.0,18.0,12.0,13.0,13.0,18.0,19.0,17.0,15.0,-0.35325222809000983,0.003849898190554934,-0.08571710007057162,-0.040162587452956214,-0.03740641675260408,-0.017214993166238503,-0.030583254851901533,-0.40726964041643354,-0.11574877697043771,-0.1759619841483084,-0.20198010359452853,-0.4102164581394664,-0.4674297791656436,-0.14259407099574345,-0.17378361954530455,-0.33941451040705833,-0.6859432127450634,-0.5568158244142429,-0.08326940763188953,-0.23299840995623083,-0.7793335627127239,-0.6237227539726113,-0.24427370961095105,-0.24689421664769118,-0.43944656742531674,-0.19476459188081938,-0.24757611573020374,-0.4390480823175872,-0.39315045266394066,-0.18428462944612822,-0.2625258739309982,-0.10570886010570174,3
4.225,1.95,2.3,3.0,14.675,21.0,4.325,7.825,277.0,100.0,104.0,188.0,987.0,1407.0,265.0,530.0,17.0,11.0,9.0,17.0,22.0,14.0,13.0,19.0,-0.693288566891085,-0.4864693046872099,-0.21369593769381615,-0.13928863222420323,-0.13433342342955443,-0.19464810449181108,-0.3690809658830858,-0.25335791069541996,0.049588369633913894,-0.38165028955437375,-0.30053385371107305,-0.4520070013072473,-0.3661604195180207,-0.06600910937449692,-0.31292032519968943,-0.3500602468277231,-0.7268654938387785,-0.38464493701203933,-0.16720753364094385,-0.03444932889284902,-0.47802558540041945,-0.15621997083385747,-0.16006610816684946,-0.12298940497168817,-0.35130442800620487,-0.5439394989566599,-0.17186929897056288,-0.42688445782366297,-0.8343277474522199,-0.7209325253204751,-0.6177170595789184,-0.3827114424283737,3
4.525,2.1,2.425,2.275,10.575,16.775,4.6,6.625,292.0,107.0,117.0,104.0,673.0,1038.0,263.0,423.0,15.0,9.0,12.0,10.0,15.0,16.0,13.0,17.0,-0.3362856599197586,0.054363749014649035,0.19083649102084632,0.20144748280366484,0.07637401573742603,-0.16260541779384038,-0.17960923431821418,-0.14768903203960448,0.16551175114125846,-0.1309720117499533,-0.2840665231256223,-0.18564558431677042,0.12660215151765725,-0.16433217085831595,-0.2885116158219871,-0.3371368551261767,-0.7543893061254593,-0.5902468743940236,-0.319149645765018,-0.12923188862779933,-0.46910810941111813,-0.33619276998671255,-0.2637731958760836,-0.26550751600344785,-0.2845332782270649,-0.47841628512036016,-0.2088749859976309,-0.31237179816681787,-0.44336937991918673,-0.25863752474062157,-0.2965884922925283,-0.14890644383931664,3
5.0,2.125,2.6,2.65,11.925,18.0,5.1,6.35,330.0,117.0,150.0,167.0,737.0,1069.0,339.0,416.0,14.0,12.0,15.0,16.0,14.0,14.0,18.0,17.0,-0.2141281686248904,0.3905287281498139,0.14191851033572925,-0.108838343816739,-0.15761323820892256,-0.23351333758958415,-0.37193295914989066,-0.2605826765452915,-0.1184116336781388,-0.21945005460654873,-0.06916525237812386,-0.30219248509676916,-0.2204044017628172,-0.21156846726101208,0.027985391227488315,-0.32650803213803037,-0.5099989100937726,-0.4651208919154079,-0.204080053383386,0.11717608631251768,-0.34344237204154293,-0.302853734327946,-0.2098549351781184,-0.30472331741215297,-0.5200601950575376,-0.5684132932119937,-0.39070964136073827,-0.5129454965042298,-0.28093766402234366,-0.17282615608894392,-0.1856513072232725,-0.431094837559267,3
3.8,2.3,2.65,2.95,11.775,16.525,4.625,7.575,267.0,134.0,154.0,154.0,703.0,911.0,276.0,438.0,21.0,15.0,13.0,13.0,14.0,14.0,14.0,14.0,-0.2581189760676624,-0.034047489909704534,0.21537496474201231,-0.13857409599303083,-0.15974217563225435,-0.14050095589925773,0.06312320281151723,-0.33447066675310533,-0.10118578976276008,-0.1657611994403198,0.05260110371168361,-0.3587869653509885,-0.05788260896841585,-0.22470754905786686,0.045628406136275744,-0.35350166026402896,-0.3541825673019071,-0.16901605902239414,-0.34532305216814874,-0.1875389677273796,-0.14148467499464523,-0.23586205275688507,-0.028359654771389447,-0.0010721851802703063,-0.25867784739134025,-0.27867135205182036,-0.26092288192143,-0.3198862871527197,-0.31043698613779047,-0.5129951556666945,-0.33136849250032896,-0.10018225442577326,3
4.175,2.2,2.3,3.075,12.2,21.525,5.875,7.7,284.0,120.0,120.0,182.0,770.0,1348.0,376.0,476.0,19.0,11.0,9.0,16.0,17.0,13.0,18.0,18.0,-0.22440086097046738,-0.00759257225015358,0.15136410307910264,-0.1790420992756998,-0.13095062592572068,-0.17162401360951116,-0.21785150619824076,-0.12323370406022777,-0.07233336162756894,-0.1375636614241022,-0.1296886200467645,-0.04099779575265885,-0.3936932041740781,-0.31422344946251274,-0.3233458564240337,-0.42913558916062894,-0.40147676303022456,-0.1868233642343073,-0.4628792484250569,-0.3424916287808375,-0.6393331942455647,-0.2940401419452526,-0.5671305823706151,-0.5530448750712296,-0.428222648986379,-0.29427051704679175,-0.26460478192381864,-0.5851488130257663,-0.19282504196343872,-0.16767043164785536,-0.10466282267968421,-0.1551775084109478,3
4.6,1.95,1.95,2.95,9.825,19.175,6.125,7.975,302.0,135.0,130.0,197.0,617.0,1094.0,385.0,561.0,17.0,16.0,18.0,19.0,16.0,16.0,21.0,21.0,-0.497216105182815,-0.24629285862488856,-0.23879651520887157,-0.12123726181256704,-0.6929779912066506,-0.1351290778081254,-0.2804972794680272,-0.4311264758493264,-0.3772822293349885,0.10679531042777392,0.001921691327646951,-0.3655375241812427,-0.5329601255642336,-0.12593299779092718,-0.011746528412752272,-0.2442750527754016,-0.29417633256885484,-0.2713277009717207,-0.21259923013217272,-0.5262052166088053,-0.09649778025066194,-0.383565715777719,-0.12743665292346174,-0.3978168222680357,-0.5215724465871029,-0.2956394366290835,-0.213836793170549,-0.29221322860618265,-0.4607920239104522,-0.38782543029609773,-0.03773532022735025,-0.06945222691954647,3
5.275,2.275,2.2,3.075,11.9,26.375,6.025,9.075,308.0,140.0,147.0,204.0,783.0,1894.0,384.0,535.0,18.0,16.0,16.0,13.0,16.0,21.0,15.0,13.0,-0.11703945907279063,0.024321597121531806,-0.43888103887927865,-0.0252051003780397,-0.32392040241152986,0.05858729920059308,-0.17812005148643908,-0.08316372698938657,-0.3818322500949992,0.1339503779735669,-0.00665961282364235,-0.16293472208248472,-0.45398040624559255,-0.23260699553347625,-0.2996823852519076,-0.2548670803452162,-0.5099797276996306,-0.54837843417918,-0.38184011662694184,-0.4009619922945704,-0.7406255023432878,-0.5916398984181813,-0.34686634464436844,-0.4403386552204203,-0.4592846105200877,-0.35438927885206806,-0.1512918849053954,-0.21965428667296796,-0.12649204374380166,-0.2481818922701116,-0.33497154528837936,0.18173716965472778,3
6.9,1.9,1.6,2.75,13.725,25.25,5.675,9.35,386.0,100.0,101.0,180.0,820.0,1674.0,372.0,587.0,14.0,6.0,14.0,16.0,17.0,18.0,20.0,21.0,-0.12267699937170648,-0.1884235212481,-0.17667337425147994,-0.14589556729185715,-0.005268451745086925,0.16941390924187788,-0.24666237915004544,-0.10373919855909874,-0.47536872071864994,-0.13720941169456122,-0.2051073482171613,-0.13118152454785612,-0.22182001755692748,-0.04479900329305271,0.028284611587053865,0.032822805806738665,-0.44261469355474936,-0.27666249671043297,-0.20953676252035203,-0.3121935442272869,-0.48211397218210605,-0.543873253335271,-0.23936565384866434,-0.43310294216125217,-0.35235652035857207,-0.1544774923405609,0.03221342164311394,-0.38116292224530673,-0.2725379252409738,-0.19453164671309098,-0.25106349512932596,-0.20825909179026308,3
5.0,1.55,1.825,2.825,11.925,17.9,3.7,7.725,276.0,81.0,95.0,191.0,798.0,1140.0,222.0,475.0,12.0,9.0,13.0,13.0,20.0,18.0,14.0,15.0,-0.15353585865749075,-0.03198320717021223,0.010652846104044964,-0.12115379302065832,-0.17580670896950462,-0.043425895569702055,-0.2975497638393144,-0.07364652322376725,-0.2568895289418801,-0.10052728638209286,-0.2314873075303082,-0.06920691561082093,-0.23316981624902525,-0.07333170293042299,-0.09084254564124378,-0.17271615589562223,-0.6525680287367865,-0.485225611132104,-0.4913667998691352,-0.2604336759118372,-0.5340137636466731,-0.4459911367590569,-0.280622747704856,-0.23036101485778288,-0.49348368457999636,-0.37681937817357025,-0.16384895006364555,-0.30729120501387985,-0.48987288197677925,-0.5400071199923834,-0.28022122565123075,-0.24339035623589217,3
6.075,2.125,2.275,3.15,12.2,21.8,4.875,9.025,384.0,102.0,95.0,165.0,838.0,1479.0,325.0,537.0,18.0,9.0,7.0,10.0,19.0,17.0,18.0,16.0,-0.43613317474350094,-0.25551387371875545,-0.36045917840732583,-0.39612921853249394,0.04211780435008696,-0.12090456254066784,-0.13082164843338215,-0.3816979430429704,0.23695104772496864,-0.26408516021949563,-0.1207084100671198,-0.4919311008119553,0.06507526208393827,0.07863220659114324,-0.35830971490306424,-0.42160885064913545,-0.6687410638548841,-0.3818786308794605,-0.24241003000333056,-0.17152275606850217,-0.5161823764184928,0.043764441328853286,0.22941847075705235,-0.03647010515326573,-0.391346263004333,0.0037278441760851314,-0.22077985950012086,-0.49437725765546203,-0.41210072192264596,-0.23291064219553254,-0.35151650422398045,-0.5418485668659616,3
6.075,2.025,2.55,3.4,11.475,22.075,4.375,9.9,399.0,110.0,148.0,183.0,779.0,1515.0,262.0,595.0,19.0,11.0,14.0,15.0,18.0,19.0,14.0,18.0,-0.41877713421750584,-0.44592181810286885,-0.3175969875241155,-0.30419570873217094,-0.0393809489082263,-0.17656945058035428,0.0443509754440314,-0.19787450071979001,-0.06059952669261319,0.04764162450311402,-0.24122284638733257,-0.11322725751129765,-0.07701834077467203,0.2659502719221789,-0.2808225617038882,-0.3885015241575388,-0.6416368944994898,-0.27660798576012413,-0.023148770005336834,0.0911661530577777,-0.7200280083390727,-0.44082729423952166,-0.10085885677314388,-0.17245447100448644,-0.17761736785964063,-0.047789258716366106,-0.07086113731087523,-0.36895821880267765,-0.43139309820135463,-0.32471783868067117,-0.24922509979889107,-0.19274664586171678,3
6.425,1.9,1.825,2.575,15.075,18.7,4.825,8.825,407.0,111.0,104.0,143.0,977.0,1207.0,280.0,541.0,15.0,11.0,8.0,15.0,18.0,16.0,14.0,17.0,-0.24791534159465162,-0.08581495173106023,-0.25450186106211997,-0.0903285337944378,-0.14593820331336588,0.012117820073484989,-0.06768590949212593,-0.06669241903117246,-0.21569001217917577,-0.32530373648685196,-0.30114949326042967,-0.09089658886790752,-0.3443052063636765,-0.5270233948706563,-0.34174471696390224,-0.24368328884861412,-0.40011142717036047,-0.3202997687513313,-0.038759817169950486,-0.13269633688636936,-0.2621817519300883,-0.4162207237855104,0.02299424255919968,-0.3231431906140217,-0.3961027314325636,0.0008017489375309584,-0.08281740063573602,-0.17350505321182635,-0.4473944519397154,-0.37822346455075606,-0.13770361729487204,-0.027374927071040896,3
6.65,1.975,2.425,2.4,13.275,21.375,5.175,7.225,464.0,110.0,124.0,117.0,788.0,1422.0,285.0,442.0,24.0,12.0,14.0,15.0,16.0,16.0,16.0,19.0,-0.5000396971501179,-0.19355674174760956,-0.0467032315330131,-0.2728828576837503,-0.14329136339854934,0.1393232014632922,0.06358146823492901,-0.24048043991828508,-0.11250251235744417,-0.19522313223186735,-0.15170319066106197,-0.1388745592295166,-0.16230556205586966,-0.001600581441478098,-0.030236773330433057,-0.13268675760194631,-0.30460975411963565,-0.2698995668513592,-0.22000404479461785,-0.24691001738339333,-0.6082459714075894,-0.6234484987701271,-0.5843540453730691,-0.5401270554810982,-0.25149860085080894,-0.20290492921816788,-0.39831298545886024,-0.40152801759185563,-0.3955469577473574,-0.2748568997240296,-0.36155202987293994,-0.1429440068403688,3
5.85,2.1,2.375,3.05,10.9,17.775,4.775,8.25,393.0,104.0,121.0,157.0,729.0,1058.0,235.0,483.0,15.0,7.0,11.0,11.0,21.0,16.0,11.0,14.0,-0.271958672374038,-0.06785234934685065,0.09126256691607845,-0.21572189361431424,-0.11197089450122394,0.056840060450146467,-0.2497094388318014,-0.42898644232061695,0.0032762183186694433,-0.04778524798899433,-0.06588382716498481,-0.25693087445336293,-0.03535155960099262,-0.15940741752784998,-0.0987352503465036,-0.31632715933221395,-0.8893189774835649,-0.7433308909882377,-0.5687793537153124,-0.23785971791667299,-0.29094878154471293,-0.23897717808946659,-0.0869780078036301,-0.32281675399063575,0.05813830783261965,-0.18764056389300707,-0.3586183424079605,-0.017269683812350313,-0.2095204127027614,-0.24153827253034665,-0.256841446508928,-0.05905257456851546,3
6.0,2.325,3.25,4.7,11.1,19.85,4.825,7.95,387.0,107.0,150.0,230.0,710.0,1042.0,283.0,492.0,17.0,9.0,9.0,12.0,17.0,17.0,16.0,17.0,-0.20511013632008113,-0.25730413037324296,-0.12295723092555917,-0.45407003450641714,-0.014546358382563124,0.11687312865334396,-0.23725933056156068,-0.5929455015972395,0.017525104472839188,0.27296478218130144,-0.29417195574385396,-0.5200821545360158,-0.08415173349966587,-0.013344287489004833,-0.1613723858983746,-0.4171432577739138,-0.5451794280723761,-0.341701384403222,-0.10485690739570172,-0.27244391382652167,-0.06613075880564738,-0.2503338532379845,-0.0345787508295536,-0.0061330428302306585,-0.20860154307599724,-0.040994342311390694,-0.11183730872682682,-0.3059519286906465,-0.16744867556341164,-0.2033035929909348,-0.07905169886176294,-0.23281592879116916,3
6.05,2.25,3.25,4.125,12.5,23.525,5.525,7.45,352.0,97.0,136.0,188.0,788.0,1268.0,275.0,478.0,13.0,10.0,10.0,9.0,17.0,17.0,13.0,16.0,-0.36764113179130853,-0.3615926833866725,-0.45794304217974463,-0.4289568182362824,0.32348718141968824,-0.1929149996369561,-0.39156667993761474,-0.06221527798445782,0.33769767721135757,-0.27477144206620757,-0.27299696628512865,-0.10396437988803982,0.2498969874467473,-0.2865576117595075,-0.3203639095546821,-0.09750691351450709,-0.312466178984816,-0.32765704716588745,-0.4136203177597163,-0.25759082452295695,-0.08237348569204785,-0.46191315003845124,-0.22846564476192058,-0.37118734542900833,0.06764065549982273,-0.381349694796654,-0.08984021056417305,-0.2522496717826602,-0.3665605387825907,-0.1865716649585879,-0.027434796068975847,-0.20679832508018117,3
6.0,2.35,3.05,3.6,12.825,21.875,4.9,7.875,405.0,120.0,155.0,183.0,856.0,1374.0,291.0,542.0,17.0,10.0,12.0,14.0,19.0,18.0,18.0,17.0,-0.5014760937237406,-0.41260836100401405,-0.39385157406936,-0.32967948967908417,0.09259531123705256,-0.021352838125160294,-0.17838675743750193,-0.1392240471672068,0.10680889171985478,-0.40360914736050485,0.018167166079341268,-0.31059570874561176,0.07212265813716659,-0.3674525718794076,-0.1011685268165329,-0.3222029145271406,-0.3697292170487532,-0.6984680001756293,-0.18902604361979206,-0.535330044140538,-0.45518702287269097,-0.46326034436727714,-0.3066528741077415,-0.4282301004262405,-0.20050106733855771,-0.11832936770486592,-0.23279503365791346,-0.37639716763852654,-0.4099675570424117,-0.02909221586478826,0.014572875678809162,-0.2741309170549177,3
4.625,1.6,2.05,2.775,10.025,21.3,4.8,7.575,292.0,90.0,126.0,147.0,738.0,1401.0,300.0,513.0,16.0,8.0,13.0,14.0,20.0,18.0,13.0,18.0,-0.4429677322350989,-0.3197919874856359,-0.27660708194172,-0.0768600663322685,0.04308749949176624,-0.22436730656933804,-0.16503414430993799,-0.16570423486632707,-0.10832227491284088,-0.33525368065481037,-0.11130481818134279,-0.2044765066612242,0.08681911948995741,-0.39299916180025474,-0.10839771036649568,-0.32708383337187413,-0.8999951182212346,-0.4252247439081179,-0.48664236181157555,-0.3685874777013266,-0.5578001535995021,-0.32618384881228696,-0.28860229745872723,-0.21144670796520296,-0.2947323153708008,-0.28723259266419876,-0.38498528737783827,-0.5210993490564059,-0.4273235874366573,-0.12874701336107716,-0.283285842433603,-0.22943645190398249,3
4.35,2.175,2.375,2.75,11.425,17.15,5.15,7.7,250.0,101.0,107.0,148.0,777.0,961.0,292.0,541.0,15.0,9.0,10.0,11.0,22.0,14.0,12.0,20.0,-0.12789241193434273,0.01059096358589793,-0.03603796553819493,0.02855548822087414,-0.003984237484595036,-0.06849310224441328,-0.30025924233760976,-0.2911138714637426,0.1465487047586993,-0.40055256218807983,-0.20111475626099423,-0.3847430819588758,-0.02972210387774807,-0.4661213221739108,-0.21147361322076985,-0.27224824553399224,-0.7396398656705256,-0.6065663861820759,-0.38464817901858955,-0.20981156297897777,-0.2397990992617926,-0.330986941815886,-0.23717574699448984,-0.21035176777699285,-0.21874213987306843,-0.3605930619887704,-0.1868327553703228,-0.2659441413945808,-0.866293349063527,-0.6427539827919166,-0.17818533529228933,-0.1786977571368836,3
4.4,2.0,2.55,2.725,8.175,19.225,4.9,6.4,279.0,106.0,140.0,172.0,524.0,1123.0,300.0,445.0,14.0,10.0,13.0,17.0,15.0,16.0,17.0,18.0,-0.2704614800152247,-0.14722468572791364,0.040564816755140225,-0.0966988453164242,-0.1851392855684756,-0.37069026575700614,-0.2500498554169372,-0.14771150065540212,-0.1748286449992922,-0.24643264139434695,-0.14842722931748772,-0.09950510305411726,-0.4862732407828239,-0.3723956841296182,-0.21272563122176372,-0.31491614781487254,-0.34352526152775703,-0.0925915469709271,-0.2599031506856398,0.05041111483895298,-0.1635936653209133,-0.18817908933017738,0.06878641671416978,-0.12358070324413493,-0.24683787529784748,-0.012093912007752722,-0.030981173991299158,-0.4208681554471139,-0.639263935508214,-0.4214246966223729,-0.21048742878547638,-0.12370704300156553,3
5.375,1.575,2.075,1.975,6.925,18.225,3.525,6.8,346.0,74.0,102.0,118.0,371.0,1119.0,206.0,440.0,18.0,9.0,12.0,10.0,16.0,18.0,16.0,16.0,-0.28237225298411744,-0.06877009653948726,-0.23319267952792805,-0.2102200362339033,-0.013844144862895149,-0.10770384207833932,-0.11988255740630166,-0.29835393501422,-0.03154803483246935,-0.10259669027740122,-0.08529228688296009,-0.1354174756697355,-0.1525294958343148,-0.1038534674392815,-0.22227263791767168,-0.473237528672572,-0.13733852819456063,-0.2702347636052909,-0.05252990312245536,-0.2875986126606838,-0.32073771196500456,-0.2712802408284072,-0.15080140278219922,-0.27143840387613816,-0.29655552344632813,-0.12512535579431933,-0.3109021085333789,-0.3416103839297754,-0.3296540004297048,0.01642269327564956,-0.2573923366159474,-0.2239817380209881,3
4.525,1.175,1.9,2.55,11.45,16.975,4.075,7.625,300.0,44.0,110.0,133.0,775.0,1095.0,217.0,439.0,20.0,7.0,15.0,11.0,19.0,17.0,12.0,20.0,-0.24083627306847208,-0.06556893540623632,-0.07046712618507092,0.03748255686735108,0.21390345924586573,-0.14991297447195948,-0.21698395924601466,-0.10535888602730514,-0.21984760131870354,-0.06375335631096313,-0.2552315586297543,-0.08452817014639263,-0.060406509068686484,-0.09322047789228839,-0.18593512290251096,-0.08050222975717783,-0.7130524856380285,-0.4538683664124328,-0.5187959235682876,-0.3566106383978607,-0.3375934600877228,-0.07613763523046051,-0.40762839525661787,-0.16521935414853076,-0.09421137484013095,-0.22304144567639045,-0.3125319514977937,-0.052182142297644236,-0.18393985989122494,-0.31588834357790857,-0.39918845226099026,-0.17737513939071592,3
4.675,1.775,2.05,3.375,9.925,17.6,3.9,7.05,304.0,92.0,99.0,171.0,679.0,1148.0,226.0,399.0,18.0,9.0,11.0,13.0,22.0,21.0,18.0,13.0,-0.35368703726880785,-0.19906519723478375,-0.17773772371494517,-0.20679933344555687,0.016542187092073293,0.2727652396016243,-0.3208457535644555,-0.44112962264803846,0.12770469690748687,-0.252415601050145,-0.20016578027086046,-0.25314849520194227,0.02243010592506049,-0.3332694231010475,-0.05398577174913527,-0.24233248630511234,-0.3902988734440371,-0.2177043643263745,0.04014607360666,-0.27984581973319034,-0.40357028422038577,-0.28137890088512446,-0.29031490016953043,-0.3496362326696339,-0.1237621401680584,-0.08135444850105754,-0.029377157375223527,-0.014559295083969935,-0.37276187970641134,-0.4523848382127486,-0.31634011532038747,-0.39282447279793364,3
5.625,1.675,2.15,3.75,11.8,21.65,4.2,7.05,357.0,81.0,96.0,200.0,767.0,1406.0,263.0,454.0,20.0,13.0,6.0,14.0,17.0,16.0,18.0,21.0,-0.2446043942269856,0.0885244031007547,-0.04148056068276691,-0.20143418535192364,0.10326531462044486,-0.006585847747119367,-0.07345035435691447,-0.24951418227356298,0.2908503236901767,-0.29676810433856077,-0.046508933478558404,-0.1522708238034527,0.07874908788248654,-0.14798397524902576,0.13682160984773517,-0.44923625690565405,-0.5398045244298264,-0.16708521396927997,0.016684732025027026,-0.07238400050535214,-0.3254857025183218,-0.46283308471587276,-0.13351307503075932,-0.29138856182926576,-0.2942379231942516,-0.2960210417628838,0.06898445371860878,-0.20582983600225635,-0.48639695494697205,-0.21750171967426704,0.03208680991590476,-0.09653443260712133,3
6.525,1.85,1.5,2.825,14.85,24.2,4.675,7.425,396.0,96.0,85.0,178.0,1055.0,1678.0,302.0,444.0,14.0,13.0,12.0,14.0,22.0,20.0,17.0,13.0,-0.3297724894432521,-0.24991392474068308,0.04412711139698933,-0.28646043723723535,-0.4517193301224299,-0.27482379038459676,-0.22183181839009222,-0.34853681825625493,-0.2835842498503187,-0.0496858620507174,0.1756407399172847,-0.17247379119870548,-0.35957567921971434,-0.17239186856398805,-0.04971754468190261,-0.2335804315278209,-1.0367417775479557,-0.6704179175374554,-0.37214436638340176,-0.11873544847511887,-0.5592428250230499,-0.45845505529990593,0.039863139681338575,-0.15530935620627923,-0.3929231961545453,-0.42836966591836284,-0.10529017909881486,-0.2218579421368654,-0.3750711223222741,-0.2272478331997015,-0.01422606591218198,-0.09642358054966853,3
5.825,2.125,2.35,3.1,16.725,18.55,4.7,7.275,351.0,116.0,143.0,175.0,1187.0,1238.0,306.0,478.0,11.0,11.0,13.0,15.0,21.0,21.0,14.0,15.0,-0.2934074234637167,-0.4242699414621714,0.037542047515821915,-0.46252447541241254,-0.25856042180713806,-0.05618815841848151,-0.3124014150594828,-0.3581717543361211,-0.4192717471395674,-0.23775737897340896,-0.4445321617839641,-0.40275870623757104,-0.239846128436842,-0.0978835228828849,-0.4326451013884766,-0.3271282473700011,-0.9321317581807189,-0.39411637245213715,-0.1696410381097682,-0.1378775997969708,-0.40056082478773386,-0.1226665313255223,-0.0587369087036078,-0.23830747890094112,-0.512744378143429,-0.32863578352677825,-0.35876473593062347,-0.27500814203352136,-0.45969619381837823,-0.36211750291836,-0.23244252610193372,-0.3047403451126321,3
5.225,2.175,2.425,3.15,10.225,20.35,4.175,8.325,314.0,113.0,139.0,174.0,664.0,1324.0,266.0,537.0,17.0,11.0,17.0,15.0,17.0,17.0,13.0,19.0,-0.26784736112491,-0.3325314425920454,-0.028217299502395876,-0.36097447509032826,-0.07999018282273808,-0.11612685430180317,-0.3934690550825102,-0.22369982668648578,-0.22464472115982032,-0.17688849183124503,-0.5339323065486998,-0.08754683845534764,-0.2586062642857483,-0.29365393888479985,-0.3553501044578248,-0.38166496936289934,-0.5072967671680202,-0.195295996743391,-0.24750459826710788,-0.2499082821444647,-0.6083564356682934,-0.43109346546110877,-0.41738262481738125,-0.1560613771441678,-0.19269927585870017,0.036736287393641896,-0.2514295904214174,-0.21114282573255075,-0.2254527358209065,-0.38389588088798093,0.027645993229349082,-0.3071876854112943,3
3.85,1.675,1.9,2.775,8.475,15.225,4.375,6.925,262.0,93.0,99.0,158.0,550.0,897.0,268.0,438.0,19.0,11.0,9.0,17.0,20.0,13.0,15.0,19.0,-0.6241268388857909,-0.34325654884581813,-0.3446295755950757,-0.3897718994785029,-0.2839761242030217,-0.0854822858206721,-0.38052431048085505,-0.6166432615699439,-0.0908533373712512,-0.11614621142215519,-0.2400811182680267,-0.4982679689989172,-0.2650185236759,0.10053397040170914,-0.39943584468099425,-0.438027470941848,-0.4828041635602917,-0.1484161887728463,-0.03461054851614381,-0.238831261686051,-0.23207701790123964,-0.2850162570952648,-0.13205387016302497,-0.21501813542031395,-0.4093324483144671,-0.3169663701659988,-0.3672073354476272,-0.5515373877237656,-0.19500549858385643,0.12238419782631306,0.007612489274956782,-0.35957151177713587,3
4.9,1.4,1.95,2.725,8.75,15.875,4.375,6.975,298.0,85.0,106.0,141.0,596.0,1038.0,280.0,432.0,16.0,10.0,15.0,11.0,18.0,18.0,17.0,19.0,-0.2543869815686934,-0.23199910086396153,-0.2567438085426425,-0.28930772950522976,-0.18199986119626094,-0.14782839080158208,-0.3699264546188209,0.011004244330833014,-0.09139519819284632,0.19969538079485552,-0.21453959390358723,-0.19642163175982483,-0.1581568034377756,-0.04539889647841022,-0.23552459856672314,-0.1099789127104644,-0.47729608972699755,-0.1849498237382143,0.0006019035056458061,-0.36582550683302445,-0.6211233533012446,-0.39395819471915317,0.02847084549760859,0.05455796140206005,-0.7055441772430812,-0.5988724223006034,-0.3067803639660629,-0.1459277562057762,-0.34834284799821624,0.06329493466535367,-0.304395156869661,-0.4639311836074245,3
4.5,1.8,2.3,2.85,10.175,20.2,4.975,9.1,271.0,90.0,117.0,165.0,659.0,1387.0,306.0,598.0,15.0,8.0,12.0,12.0,17.0,20.0,17.0,20.0,-0.23742576521742106,-0.05483577448837435,-0.21286693716008853,-0.23543876206468056,-0.07348479338430666,-0.012909676890619594,-0.17019956107661463,0.1029040266050027,-0.19658280771371175,0.003005983517029208,-0.3812972054797635,-0.21071466530755462,-0.27698565583389895,-0.06696962280231349,-0.3003797903907754,-0.34292572045870623,-0.49821920166464356,-0.38789712373875956,-0.23065887054797624,-0.43707652293589627,-0.46014409867152345,-0.5576377447567328,-0.14424468369815102,-0.4937580642942278,-0.7101568822957967,-0.5764364314409575,-0.18815844429924702,-0.0723433844560635,-0.33044243187208067,0.07058733469572306,-0.10622181523512485,-0.34502894875958634,3
3.925,1.55,1.9,2.85,8.95,17.35,5.325,6.0,216.0,98.0,112.0,155.0,625.0,1042.0,364.0,369.0,11.0,15.0,13.0,11.0,18.0,15.0,15.0,13.0,-0.3501749985782368,-0.27749896457660256,-0.2166711568859364,-0.23144179027282222,-0.2866627126737419,-0.04157015157444504,-0.3057955415271577,-0.003138302860328784,-0.3623586640763999,-0.2948072029403388,-0.5856608691120067,-0.144619030969309,-0.1386759729861135,-0.219185700096772,-0.33958825723744834,0.15936501693471034,-0.4714734935636209,-0.24180023117927643,0.1262320178136588,0.08160813387902403,-0.28306286765360283,-0.17936052653520884,-0.20585537364989445,-0.2943030959401211,-0.5489047892029447,-0.29685132479844495,-0.07042425232062849,-0.2504918784640705,-0.23796042402428394,-0.3849046635835209,-0.07517293802974358,-0.25673687154773467,3
4.625,1.775,2.25,3.0,8.9,12.2,3.7,7.7,265.0,104.0,115.0,161.0,537.0,732.0,209.0,491.0,14.0,10.0,11.0,12.0,16.0,14.0,16.0,16.0,-0.14600649255844503,-0.22545245076298334,-0.1304203721450659,-0.06821845492603651,-0.17667009330180558,0.03785775604003572,-0.40382492798376746,-0.19440640900221248,0.0661780812254076,-0.126896392662288,-0.19587292033640546,-0.03728851674377641,-0.13696143841457306,-0.3949931451414895,-0.30437605027604975,-0.34348383063684496,-0.145963175390903,-0.10916303094328723,0.06627298797848719,-0.4604125482301095,-0.18309354858099414,-0.02045949120251678,-0.18796291284420832,-0.3497017688840079,-0.3433916171886186,-0.5998463233497651,-0.28449030558419536,-0.5839625159216582,-0.2913378530298024,-0.1823200951349642,-0.3198183416318523,-0.1993560160681922,3
4.95,1.95,2.225,2.7,10.275,14.325,3.5,8.425,312.0,89.0,107.0,144.0,701.0,918.0,208.0,526.0,20.0,12.0,12.0,11.0,21.0,18.0,14.0,15.0,-0.2916909452190283,-0.3799005799504327,0.04695315763524197,-0.01739139096972336,0.03975626823974576,-0.34916997551305706,-0.1282040746904608,-0.31510884811067524,-0.002226056614937742,-0.13031175252082514,-0.27509830088985304,-0.22296650908956864,-0.15169028532263643,-0.18108482687469837,-0.3539963715584566,-0.4177590567069301,-0.3821031518394142,0.09599838314501659,-0.29510793786255196,-0.34641449777255473,-0.28188504188168384,-0.2606573865518078,-0.15936383970368412,-0.2828461056967926,-0.424631468043172,-0.3487026657515382,-0.25663965471954386,-0.4483398328065973,-0.423928195882424,-0.3022460866849238,-0.014482224304962031,-0.05712107370566461,3
4.8,1.85,1.65,2.85,9.85,15.95,3.575,7.9,266.0,111.0,78.0,164.0,701.0,1031.0,205.0,463.0,12.0,13.0,9.0,15.0,18.0,15.0,11.0,11.0,-0.2300040545673581,-0.1993643218059089,-0.04727044053101307,-0.0017866793932223084,-0.3485220323388005,-0.3804950458271195,-0.18820789535995786,-0.246118047353333,0.003728591465550971,-0.12843114608542316,-0.3050791585840731,-0.013858020481496338,-0.24086334351123043,-0.2291426918593938,-0.47318372834815003,-0.3156963692548612,-0.88216968672137,-0.5848109659861325,-0.26900531268135974,-0.08212455763772407,-0.5524363000979496,-0.541302716600052,-0.43156811225396824,-0.4225791137376166,-0.38642469049074063,-0.2560758809992525,-0.4439500186682964,-0.28047586346278897,-0.31900973597312277,-0.3915613983238858,-0.09465522118074464,-0.16130725555423117,3
5.975,1.55,2.3,2.975,10.225,16.625,4.275,7.425,372.0,74.0,93.0,151.0,725.0,995.0,250.0,462.0,19.0,9.0,9.0,11.0,22.0,15.0,17.0,18.0,-0.40519511524132473,0.07584580417741496,0.0917495169994149,0.07744544606545883,-0.18474206838500204,-0.14211236549969378,-0.258343099843399,-0.5961789608733511,0.02850956302230096,-0.37958800800152204,-0.19881080114038194,-0.6462422099969656,-0.052188940318116994,-0.19181316900028106,-0.3562941584579276,-0.29597138730197103,-0.5085010204558582,0.14600304783209736,0.05872651770918788,-0.3176441898139805,-0.13481948739879374,-0.08822900519644952,-0.08435907832123904,-0.6209182487484646,-0.32909570338487837,-0.31010313550430785,-0.2626470495514267,-0.37711323663599405,-0.41543129998392014,-0.10293549074342433,-0.26632002899657015,-0.24766175805477925,3
4.6,1.8,2.125,2.675,9.625,18.375,5.375,6.15,292.0,99.0,110.0,165.0,668.0,1295.0,343.0,377.0,20.0,13.0,11.0,16.0,18.0,20.0,18.0,14.0,-0.3327542352235478,0.2841315922856242,0.1284912568277774,-0.13222531748117428,0.012100448826865411,-0.23117698556884156,-0.10125078948151253,-0.19264875683420277,0.04590411410240433,-0.3720529732452915,-0.20927139870425046,-0.1485343686099724,-0.36646675432119374,-0.41367844851897806,-0.4819367479242221,-0.21674818919861144,-0.7674302496632265,-0.24127177404552055,-0.1676386206105518,-0.21688622369068933,-0.8971390570437807,-0.43451294457766687,-0.16155316823024565,-0.1424921926000531,-0.5487545248962059,-0.22837070978423846,-0.25971250217355046,-0.16108495459287683,-0.19498080076672622,-0.3242512599039224,-0.13397848775711502,-0.2100563847255809,3
4.575,1.825,2.175,2.675,7.825,17.575,4.45,8.25,285.0,102.0,128.0,162.0,488.0,1150.0,274.0,579.0,19.0,11.0,16.0,12.0,19.0,18.0,14.0,18.0,-0.38928662565214434,-0.05185744271300557,0.0884440635243594,-0.025003873927042924,-0.11752264703508931,-0.22260815073299145,-0.24751550017621324,-0.061615896528544344,-0.31488484627345675,-0.3606800353792929,-0.3380433289774338,-0.3017234455109936,-0.4113717905324111,-0.4507784613861968,-0.5365601973558198,-0.3563941729426462,-0.4275688275669234,-0.42727141682569875,-0.05239462422146543,-0.2813137528628173,-0.6058245175848854,-0.41864448084521816,-0.15501608898613933,-0.10743663494285524,-0.4517671748720437,-0.23252242779793375,-0.09362626819574746,-0.09518522908081584,-0.5571109202101331,-0.20377887435732542,-0.16527744571764622,-0.20880523094781966,3
5.225,1.4,2.25,2.875,9.75,27.175,5.525,8.225,324.0,99.0,120.0,170.0,641.0,1845.0,381.0,515.0,11.0,15.0,13.0,13.0,21.0,21.0,19.0,18.0,-0.21131780219955812,0.0018722572060850841,-0.12990620671278214,-0.09074269316108953,-0.268878604679723,-0.1336278494425011,-0.25205190902880004,-0.13239813022279226,-0.19953350923279395,-0.27319050786803345,-0.32685695313093616,-0.067690221364799,-0.1791105228885861,-0.29137638423727946,-0.46856878122938445,0.09149647215703031,-0.45752541935111957,-0.184802062621164,0.17890432981931173,-0.055580355546564424,-0.7937393831197973,-0.6668426000750416,-0.5472640345915627,-0.45006332559167916,-0.6388143803367003,-0.5220414244032385,-0.2819509453092948,-0.13813669749106144,-0.4434734735468248,-0.22311227983028803,-0.06882545463245635,-0.1090866235874063,3
4.2,1.8,2.225,3.125,9.3,22.2,4.8,5.5,273.0,119.0,121.0,196.0,652.0,1481.0,301.0,308.0,17.0,14.0,13.0,18.0,18.0,18.0,18.0,11.0,-0.4863301957140175,-0.4177141374195603,-0.38325087189934404,-0.4481866365782047,-0.24854079478781502,-0.1440331360059643,-0.06665234611571659,-0.21736156547032368,-0.20031622817237682,-0.0374654661694742,-0.08618598810373859,-0.04733842483127474,-0.39552955264392187,-0.09447992735634876,0.08700100001875742,0.03715670471097106,-0.4786979126840474,-0.10514351214178783,0.093618601276115,-0.20356172872073636,-0.6072268438430652,-0.2884198709678144,-0.29353106877232216,-0.3182320649595662,-0.5314423489705162,-0.2961694616932657,0.00265503974897721,0.06906214936148818,-0.2358912652128895,-0.22034992485695443,-0.25331862167857316,-0.3594035754203439,3
5.2,1.875,2.125,2.775,10.025,21.25,5.325,6.25,298.0,100.0,114.0,183.0,705.0,1425.0,343.0,428.0,13.0,13.0,13.0,19.0,18.0,14.0,17.0,14.0,-0.1277213068869795,-0.3882854878265924,-0.052070289927436064,-0.12468297570003258,-0.2914670109704212,-0.42717850980103556,-0.27099005813893856,-0.14663265673636616,-0.15398395903368067,-0.31184552949059163,-0.14312172682379637,-0.10574277775163893,-0.3411089763232653,0.0405463453855234,-0.05150515270938888,-0.26981491082089487,-0.5770656435035475,-0.4026462548328598,-0.03790873539975371,-0.2576469254239066,-0.6465762318987719,-0.5078509292946255,-0.17447186568424405,-0.14946013132014113,-0.5913295547896971,-0.28863457973903045,0.20398836452707117,0.09174128124946525,-0.37494696170190467,-0.052004690007366974,0.2768422651607483,-0.01580076053343937,3
5.5,2.575,2.625,2.825,9.775,21.15,6.45,8.55,286.0,156.0,159.0,168.0,633.0,1339.0,421.0,606.0,12.0,13.0,15.0,13.0,20.0,19.0,20.0,21.0,0.16798396563705173,-0.15109477830361434,0.1511620207833282,-0.1037246447764642,-0.4573732560012156,-0.2899892145543155,-0.5194117082479572,-0.570124412798237,-0.3070610090957346,-0.41476771608949325,-0.28737156797376173,-0.3890103284009893,-0.11889281048823094,0.17106522007174788,-0.2238538814808748,-0.1286923736172213,-0.3512194416027119,-0.10607632290736366,-0.16261007837409497,-0.18460498836080624,-0.453635229143505,0.07207983579621986,0.37177908004655275,-0.1443032527199015,-0.6454044513219243,-0.4812316799652177,-0.15382490164986196,-0.22536617275477183,-0.4986061039761057,-0.391158367083112,-0.15018470251155122,-0.18850161954917916,3
6.425,2.175,2.475,3.225,16.5,30.775,6.9,9.775,355.0,128.0,138.0,203.0,1169.0,1927.0,452.0,695.0,15.0,11.0,15.0,15.0,23.0,17.0,15.0,20.0,-0.13274156635475617,-0.11277455366513275,0.07053120103997917,0.056849800886646866,-0.2508580520011153,-0.1928864351235025,-0.19304063681635505,-0.42135814014297673,-0.19938090046628645,-0.2734195527470723,-0.4836976851958372,-0.12720969541811636,-0.25794400749554575,-0.4469624926985356,-0.2220054145396429,-0.22047607625749113,-0.5626505179889516,-0.09507982305378378,0.07168652135923283,-0.18299504396051322,-0.5751580859166835,-0.20006295239273772,-0.22303559564665731,-0.3444889371423022,-1.0989589729271898,-0.9953642296976466,-0.6904729698894784,-0.43969055661249506,-0.6101582109802717,-0.39825802958191536,-0.41556592539375087,-0.4285748741857322,3
6.125,2.05,2.275,3.6,20.4,31.55,6.9,8.725,350.0,97.0,119.0,241.0,1414.0,2191.0,466.0,558.0,15.0,10.0,12.0,20.0,22.0,20.0,15.0,16.0,-0.18876554305823728,-0.3103280251241929,-0.1765795931393331,-0.3672073740828701,-0.0369978870357939,-0.12372085108426094,0.008799011975843403,-0.21347428486615438,-0.14865106098425934,-0.17911559527741017,-0.452437957421988,-0.10387764687084251,-0.4959586286634017,-0.1818583009079178,-0.15015000456086047,-0.22003669920193564,-1.0974309453788873,-0.8152896192223681,-0.3284187495763356,-0.22846295431199573,-0.8939755963969599,-0.6552013588651928,-0.3982051203059602,-0.3652632912456397,-0.5650843015096201,-0.47593978981551277,-0.49288536645111347,-0.4485469634979061,-0.27690371995073276,-0.10139473932031483,-0.3027506720234661,-0.24190719088584178,3
5.675,2.725,2.475,3.375,15.6,20.475,5.575,9.625,310.0,146.0,129.0,168.0,1059.0,1404.0,360.0,630.0,16.0,13.0,12.0,12.0,20.0,18.0,20.0,21.0,0.05387355071770395,-0.2704259740142414,0.057016028980362225,-0.31173013430683516,-0.44248018209975737,-0.24380852423288282,-0.3076835666280388,-0.5912856382551108,0.05541541770120684,-0.12648651937760122,-0.5592624252127691,-0.04214008257511568,-0.10295561066218244,-0.1203764695322599,-0.22132441231134414,-0.2942830499938052,-0.66010069938442,-0.27387240050958556,0.0743029050083152,0.04831948949347786,-0.658246383243282,-0.4061094418972975,-0.1584960802424261,0.03917273184250586,-0.7050965659133505,-0.7351214133837135,-0.608358966432599,-0.2471138358474774,-0.23347595215827088,-0.016686975102194076,-0.18986991230299444,-0.27093030845158855,3
6.65,3.325,2.9,2.775,12.25,22.375,5.925,11.625,414.0,209.0,183.0,165.0,798.0,1454.0,336.0,674.0,15.0,15.0,15.0,10.0,17.0,18.0,13.0,13.0,-0.41006943197877044,-0.068901754599134,-0.05910025151877515,-0.09478595149641807,-0.4539568996801971,-0.2615843710479555,-0.07010785234253833,-0.3267260653131237,-0.5753954366133948,-0.5641513744400244,-0.5171359947265015,-0.4969635835139047,-0.334209849706305,-0.4358775960523756,-0.3194702203946553,-0.3577059500555355,-0.5180382195906139,-0.31796148523120027,-0.2923136456789749,-0.10069703297787251,-0.4193980947006545,-0.24276184974493178,-0.1801186245563119,-0.030411898327670564,-0.22884712649778102,-0.20193222629891291,-0.21770990117869526,-0.1994051981628211,-0.3493414196017793,-0.4307792565878353,-0.14935421870495205,-0.16311486360275654,3
4.45,2.35,2.9,3.35,15.65,26.8,6.35,8.05,236.0,136.0,176.0,216.0,942.0,1876.0,428.0,507.0,13.0,18.0,17.0,18.0,15.0,17.0,21.0,18.0,0.13067737501849916,-0.24070606735753464,0.13693173068047457,-0.04358319803583277,-0.3746230121993387,-0.3633210738586191,-0.27546115878189953,-0.304859631116546,-0.3524747045087524,-0.29012133617275954,-0.28827858740349105,-0.2735989157404813,-0.45264981838763674,-0.38803360381691065,-0.2871780995132142,-0.17968815267140079,-0.3055397250796958,-0.27527988759100736,-0.20849127436223416,0.0004083360255269086,-0.5283731136673081,-0.2857312801090636,-0.0495160374665701,0.08581089729486262,-0.448036784370501,-0.13051887824819142,-0.12098242929990688,-0.029693000736672446,-0.3998349807175492,-0.28789394214432706,-0.03338319818325244,-0.047066654931783435,3
4.9,2.375,2.375,3.425,15.875,24.275,6.6,8.225,321.0,141.0,126.0,218.0,1016.0,1502.0,375.0,509.0,20.0,15.0,15.0,17.0,18.0,15.0,13.0,16.0,-0.3430611341911024,-0.3350630152943555,-0.1261200940603239,-0.1483328573723471,-0.33861575306931796,-0.6063731286175589,-0.09635481412836039,-0.12520380487465801,-0.24606645612708364,-0.5207599422433772,-0.09820292056822887,-0.12375160893832376,-0.367721996805352,-0.2949040594774806,-0.3201044393805946,-0.27341616264485685,-0.512772868731347,-0.42323579340657896,-0.33296024457802403,-0.34259217929829006,-0.37315215507859567,-0.3761368188850617,-0.5000185656375679,-0.3729543250805874,-0.34795146078061445,-0.21848449483502272,-0.33280338627945527,-0.15581054571672073,-0.21775737604409698,-0.17003740424296196,0.09607612211097669,-0.1795364563551374,3
5.6,2.25,2.5,3.55,12.825,24.35,5.625,9.0,363.0,120.0,145.0,243.0,924.0,1504.0,338.0,562.0,19.0,11.0,15.0,19.0,18.0,17.0,15.0,14.0,-0.4390593585619288,-0.07598474964003914,-0.2854301982853882,-0.3084077442179743,-0.2590221301697258,-0.47256113372024827,-0.21344838166427704,-0.44194271345383146,-0.3624862125171589,-0.3537926916621104,-0.2687635648242928,-0.2991645351006583,-0.4455637620518876,-0.20616550561949226,-0.24977175498270043,-0.40553507634426195,-0.5586553735857305,-0.1594233279002317,-0.1724247981116972,-0.3019460594027222,-0.34951096635851897,-0.16393669072771744,-0.06132606955467758,-0.03573779299440046,-0.4875482950175106,-0.28427206086338414,-0.3689654972501279,-0.24931451704416235,-0.4560677149170431,-0.40726398349765425,-0.20807340186098952,-0.44434217121879604,3
4.525,2.175,2.3,3.3,10.575,17.275,4.175,8.5,269.0,91.0,127.0,195.0,667.0,1188.0,266.0,542.0,19.0,8.0,10.0,16.0,18.0,19.0,19.0,18.0,-0.19650916449226594,0.15479232741864674,-0.11981792528001396,-0.13510844213277473,-0.08015770713822315,-0.08333233650594249,-0.22505540247651712,-0.4034558515818751,-0.25605723499428307,-0.10760944458124656,-0.06538058610619103,-0.3645406219520574,-0.27635276936115594,-0.14784091622699516,-0.16594091535844896,-0.11082657642149729,-0.34376638694088235,-0.29359242958929327,-0.19071208143347584,-0.09667581240308763,-0.6185546127603869,-0.2482731743844001,-0.23215221754616647,-0.09412119642507011,-0.4356907897864176,-0.27399861080381255,-0.11930240958378786,-0.11734409207801572,-0.3644134347373542,0.00913340540282435,-0.28008371521857833,-0.2032330291436083,3
3.1,1.825,2.2,2.9,12.825,21.175,3.5,5.45,179.0,95.0,130.0,160.0,776.0,1312.0,224.0,319.0,13.0,16.0,12.0,12.0,17.0,17.0,21.0,17.0,-0.1530927339352033,-0.0917552718108549,-0.2162161137022253,0.054932129632150384,-0.0025055720321148743,-0.24869848568339678,0.16756452007000136,-0.31891256005728397,-0.02605440043938514,-0.3703454278064962,0.20530587988648782,-0.4820826787985913,-0.1593322635980568,-0.49678779076821244,-0.2121571765409414,-0.26955621014874953,-0.42192067223094204,-0.586990602782675,-0.2935009615970071,-0.42460946357095425,-0.5680069277623367,-0.45769183901573285,-0.21536671407336863,-0.12336788845310005,-0.34986377736177454,-0.19274866522901798,-0.08664304215235206,0.02336901838295338,-0.23806964417700435,-0.2698941327907795,-0.06424022354746078,-0.1870720496848366,3
5.8,2.325,3.0,3.25,13.1,20.375,3.475,7.2,365.0,134.0,170.0,211.0,813.0,1408.0,221.0,421.0,21.0,12.0,14.0,16.0,16.0,22.0,14.0,12.0,-0.285604070891437,0.0858908495005564,-0.2939643909614751,-0.2601352433659393,-0.31493883582202087,-0.1955452987411688,-0.3434580441653605,-0.2441767004332687,-0.17830943821022352,-0.09255912400806689,-0.18471625551743603,-0.3099109274704419,-0.37208571053409106,-0.4056984510714513,-0.3519918788583895,-0.2791936781863251,-0.25389276781148923,-0.3511015829909869,-0.23189934398068054,-0.38033811903340053,-0.38777324117771655,-0.13573652511358292,0.04418339419552698,-0.23541115177557104,-0.30164511357472445,-0.49557792825408076,-0.1684798465131029,-0.21803627385380556,-0.46791505488855845,-0.42547931583639126,-0.275418312498963,-0.47847327953320545,3
4.95,2.0,2.7,3.05,10.4,17.15,3.8,6.925,283.0,121.0,140.0,173.0,673.0,1066.0,229.0,328.0,15.0,14.0,12.0,16.0,20.0,16.0,16.0,14.0,-0.2512531446192554,-0.16362061246984233,-0.19762105060975377,-0.09625394847021623,-0.4633243341887216,-0.4892029799086277,-0.4313165959648878,-0.1882205415705938,-0.37570035274818553,-0.5297785705165882,-0.5027326145021581,-0.33243935069529945,-0.5578137473482447,-0.6821089283856542,-0.6138807510167495,-0.4430268335962636,-0.45704041400141954,-0.2754926848136052,-0.29473918384692666,-0.39588340728863886,-0.3841080387509072,-0.1866126766181877,-0.4254958267339252,-0.342518589962519,-0.49607001479707086,-0.3682891233530972,-0.4139039544008599,-0.4301764929090689,-0.07024497460334014,-0.1391210770742375,-0.09045732115885817,-0.09075085395960404,3
4.9,1.8,2.6,2.825,10.55,24.55,4.475,7.55,288.0,93.0,139.0,172.0,740.0,1548.0,305.0,448.0,15.0,10.0,14.0,12.0,20.0,18.0,19.0,15.0,-0.28897450756249465,-0.19469556057797388,-0.32571143667232255,0.02781692257507895,0.05235568603786711,-0.6912247736380984,0.04649753587568678,-0.44823805356959234,-0.2318349846208019,-0.5503914983919161,-0.30599506639222,-0.40429318918190954,-0.3838810676243163,-0.38676553073689857,-0.3756374468637067,-0.3214908914564704,-0.4114687743058633,-0.24114384230674912,-0.25462491004709426,-0.2731856140114261,-0.6235529688160848,-0.21472756767495535,-0.26352533553795443,-0.3242309630524295,-0.618587074868802,-0.3302363612092767,-0.17840214570305815,-0.1480204489284884,-0.11040340303404254,-0.5551178015027985,-0.16005446090517716,-0.4110756703627781,3
4.775,2.55,2.825,3.125,17.575,17.7,4.825,10.425,319.0,136.0,148.0,161.0,1211.0,1132.0,319.0,631.0,17.0,13.0,13.0,11.0,21.0,19.0,12.0,19.0,-0.24305572729785013,0.03526234668035474,0.04207010657139127,-0.15126023161028332,-0.3246677399026809,-0.33888964600942323,-0.3601150924359408,-0.6655456617619887,-0.1208366415674606,-0.261786527709849,-0.36420082823085226,-0.3346149452509727,-0.11277509933629337,-0.2119248469792855,-0.3271127207280823,-0.23319471506306994,-0.6991455034435708,-0.21326004398578627,-0.21030564202671648,-0.24896471679991858,-0.4350255269280083,-0.152120787732565,-0.08936012222286167,-0.19716637994524214,-0.2534896629841373,-0.07504532193172016,-0.21628955604641714,-0.3074423929307766,-0.3403629526126179,-0.22811256095689386,-0.3043779934451704,-0.5089366951078899,3
5.5,2.325,2.725,3.7,11.9,17.525,5.025,9.275,345.0,143.0,174.0,229.0,833.0,1059.0,300.0,615.0,17.0,16.0,20.0,16.0,19.0,18.0,16.0,24.0,-0.2518510928618277,0.042079563524341536,-0.2524187939107413,-0.14330885441972716,-0.2776127685231407,-0.07370395633491465,-0.28921729499078974,-0.3384157999460721,-0.1977723265109272,0.025956858222074216,-0.22032968009152712,-0.33872229100731527,-0.38069236838042947,-0.1254470425304311,-0.4332439109351237,-0.40951088211085934,-0.7300980301886758,-0.19081635657682497,0.02745662456669661,-0.019357895853445353,-0.3808335746037944,-0.22306391740773235,-0.38368101367364893,-0.2605260972747897,-0.3268226189821584,-0.06283787439719947,-0.25840007194536485,-0.2904745929382944,-0.5151098600629372,-0.08644259142622197,-0.21090732745150073,-0.26533644606595863,3
5.1,2.225,2.725,3.125,11.7,24.45,4.4,6.8,338.0,121.0,176.0,197.0,719.0,1497.0,275.0,444.0,17.0,11.0,16.0,15.0,17.0,18.0,17.0,19.0,-0.5014080139434279,-0.2575673569127357,-0.29716285039876184,-0.015190427870096765,-0.20228936985382798,-0.2818180260461019,-0.2910607155416665,-0.33129091563576046,-0.37680167956021793,-0.3897451532093278,-0.12902544475783748,-0.41756133700597264,-0.46620056180782715,-0.31532509619257826,-0.22232389070246011,-0.1707106550234877,-0.4380287683907495,-0.1788345282865363,-0.142634512599676,-0.329210455814163,-0.5343204339405868,-0.4084577479041263,-0.4073423745797857,-0.3378712848372555,-0.32303377387545634,-0.363601482294962,-0.15820443111591018,-0.298695043064431,-0.5149287385879663,-0.07815520549405168,-0.17214468599876093,-0.2313331307729214,3
5.075,2.275,2.525,3.3,18.375,20.325,3.6,7.3,311.0,131.0,168.0,214.0,1315.0,1384.0,242.0,443.0,15.0,15.0,19.0,20.0,24.0,20.0,15.0,19.0,-0.3664193955341241,-0.170445432922301,0.05915046447052702,0.03892238473257189,-0.4524069855007297,-0.17560355500086564,-0.33242092359829845,-0.4083774086512928,-0.4516100136906056,-0.34098848165682805,-0.16752012612950545,-0.2501287110719754,-0.5654913928185966,-0.24077838054411052,-0.2558475501248903,-0.09071400902687096,-0.846623351644374,-0.3848674010829406,-0.6286954024132768,-0.5149589107126771,-0.5699749780893604,-0.08687236667676142,-0.17366797179728224,-0.30942648998825095,-0.326568587092507,-0.1975708017124042,-0.15582152804978003,-0.4363257284700243,-0.23311105184780428,0.011346463155668065,-0.17141024384332734,-0.1652069428743024,3
5.175,1.8,2.575,3.625,12.4,19.1,4.325,7.925,357.0,106.0,163.0,242.0,822.0,1269.0,290.0,516.0,16.0,11.0,13.0,20.0,19.0,17.0,18.0,22.0,-0.36695065746606764,-0.23582863194889175,-0.01926757255417017,-0.06837677767805063,-0.40041705069866906,-0.14180556228380836,-0.16780758467960463,-0.06844847052362878,-0.26473391315353495,0.046296028758316295,-0.05199299256122764,-0.03712885276070334,-0.536710379085853,-0.13527481100776878,-0.04792766109762539,-0.15255528721035225,-0.3893655903624017,-0.23541905274363548,-0.009016516451996408,-0.2539984915666177,-0.3806076543821326,-0.32766275235050174,-0.15184861193714103,-0.349191690397836,-0.6297423422655007,-0.27099586951145566,-0.4436798686211077,-0.407246810818309,-0.42331897269110275,-0.2049981718704503,-0.06556566687199325,-0.15277149373230403,3
5.425,2.075,2.45,3.0,13.05,22.025,4.65,6.225,347.0,122.0,132.0,177.0,744.0,1426.0,250.0,400.0,17.0,12.0,9.0,12.0,16.0,18.0,9.0,15.0,-0.2639309561064213,-0.12837823765730527,-0.28309767439813893,-0.10496719309256869,-0.24684205762545086,-0.16816769209381688,-0.049175532775187936,-0.3668288676058593,-0.10579242372915015,-0.27493678159875246,0.14593769415404664,-0.30283835330680453,-0.13194124220250747,-0.2829690724111291,0.13271325015213445,-0.3219576327170361,-0.22471092413787083,-0.6647687195664993,-0.12836568371260454,-0.3675492023443268,-0.2856055839174762,0.0675857656113741,-0.2522431770460283,-0.5322712070422368,0.0776355229070971,-0.1357861778098289,0.16232816895276123,-0.3231659478984788,-0.44217909179668924,-0.48038376164537117,-0.2762843092587933,-0.2356946020791141,3
5.3,1.925,2.325,2.925,16.45,21.6,4.95,8.775,351.0,111.0,117.0,159.0,1101.0,1371.0,304.0,590.0,14.0,12.0,8.0,17.0,21.0,18.0,17.0,21.0,-0.2354920849008566,-0.05237037377290388,-0.19011373613966595,0.12487494011672738,-0.27789439081278006,-0.2136376567521118,-0.3417787471302791,-0.3617180431957439,0.01744111038518581,-0.13056963392027782,-0.0718525168535169,-0.22295205158517087,-0.18615135646664113,-0.19743441620067576,-0.1572236606642956,-0.0713004921419013,-0.7380997861532732,-0.5652250043420995,-0.34623977085341545,-0.22874874005149437,-0.3092340171227885,-0.17241399970840843,-0.13681624265667272,-0.06307251967834782,-0.43880269251984827,-0.2078486181964484,0.007810954434870991,-0.06893890747328725,-0.6139329659521818,-0.471146746109516,-0.1670500990525876,-0.06609443651294139,3
5.325,2.1,2.525,2.925,17.75,20.6,4.175,7.375,367.0,135.0,155.0,199.0,1244.0,1217.0,246.0,476.0,21.0,15.0,15.0,20.0,18.0,19.0,16.0,19.0,-0.44362614213184165,0.1383358798873797,-0.2768625435752686,-0.3816428855106843,-0.39739277117567146,-0.13573189877632405,0.16081401003673368,-0.19211278094504192,-0.24105439428795716,-0.02061527886689705,0.011200051325476811,-0.41415241201099945,-0.6257532614796072,-0.13083804009678165,-0.048750319864084846,-0.20556459849088707,-0.6561961585601982,-0.2963297142768746,-0.3827838897417776,-0.22983493754238574,-0.35482733705735797,-0.19065270382151062,-0.1853531273111114,-0.25783220633038195,-0.21415101437012674,-0.23319055946134418,0.028750314664314623,-0.1907519299801879,-0.29242374313089525,-0.44953375716984845,0.02287669741318343,-0.4490935190501224,3
6.35,2.775,3.325,3.325,10.575,19.025,5.2,7.525,420.0,129.0,169.0,176.0,718.0,1158.0,306.0,440.0,17.0,12.0,12.0,10.0,21.0,17.0,17.0,14.0,-0.4498068950362777,-0.13957710720044428,-0.10346869275145511,-0.1523849654033188,0.005983013675911143,-0.23279080423386564,0.009553994878407196,-0.3572220842919313,-0.022878608954506878,-0.16897588005078257,-0.04356983327488036,-0.24954300549067512,-0.09914783158573769,-0.11408612360004179,-0.028321086705403217,-0.2544221755427822,-0.32197154354327934,-0.13536725949511966,-0.3142975883246511,-0.4167277122772989,-0.23314882843121928,-0.4795919063605964,-0.08966295401507857,-0.4692269256900821,-0.20899722973102927,-0.33935498419118104,-0.14327958408812216,-0.2158779443618623,-0.3162923896270468,-0.11425334043388952,-0.4193997311826217,-0.29608310436574337,3
5.25,2.975,3.75,4.7,10.625,19.65,5.95,8.025,335.0,146.0,211.0,241.0,507.0,1150.0,325.0,488.0,17.0,11.0,15.0,15.0,13.0,17.0,13.0,15.0,-0.2580042283334395,-0.2317250185076495,-0.07591987334127645,-0.2684875866104674,-0.13950443917204627,-0.06872768079997672,-0.2708688667714583,-0.5924249519984655,-0.1652871826765039,-0.04272302250315297,-0.2472914151353041,-0.4672677891791613,-0.11361406457175001,-0.2616753079790297,-0.09305310739361283,-0.43705218917735555,-0.040942539412246494,-0.4080082855098457,-0.27458620252664384,-0.18741953468587527,-0.2453475676363157,-0.47411397047401216,-0.31973587314195184,-0.11382682476661066,-0.19017101133653744,-0.409646971749642,-0.3548873080714383,-0.2065407535190533,-0.13598655052288436,-0.26572964285674794,-0.26060147750392115,-0.35555170021128013,3
4.4,2.125,2.7,3.225,9.025,17.65,5.825,7.75,269.0,119.0,169.0,220.0,467.0,1110.0,341.0,459.0,14.0,10.0,10.0,18.0,18.0,18.0,15.0,20.0,-0.2344698638179413,0.22041967651595776,-0.09116718902536673,-0.3331965965422383,-0.3648422044702891,-0.25855524913273087,-0.23987727799451075,-0.5418386193763473,-0.32853035361528293,-0.08548239996625322,-0.022932726967800826,-0.2435039280880425,-0.6305652622807468,-0.6590772326509509,-0.32589130138693195,-0.39805020101274613,-0.18873404617307624,-0.3518272836467816,-0.431012035425428,-0.25571788115530764,-0.5461539364812538,-0.3910848254732233,-0.32749610853723593,-0.20935672880468278,-0.345463091549827,-0.39176567701394094,-0.336108662309927,-0.05049630266720436,-0.050227607611497777,-0.4618241398822883,-0.19784272658123953,-0.42074489337487636,3
5.675,2.3,2.475,2.375,14.475,24.825,6.4,7.975,362.0,138.0,135.0,141.0,806.0,1425.0,371.0,518.0,19.0,17.0,15.0,13.0,18.0,16.0,15.0,22.0,-0.30370798362483226,0.3363046532676209,0.1761532137522521,-0.2892037353792585,-0.3337199230941932,-0.4108999309376671,-0.2824488686115458,-0.13321711388685495,-0.19791049003739417,-0.3568479864863482,-0.17488531785675765,-0.15408749601680097,-0.2582078938915295,-0.2294496603025247,-0.14658133813814014,-0.1504099812605442,-0.3755026023682868,-0.2827090849071654,-0.23696259675775824,-0.3384564357559573,-0.2216085482666812,-0.24528955683193632,-0.09880849711577924,-0.2731997667951843,-0.29579546964436604,-0.256734287692807,-0.2792197365449954,-0.03440633121858797,-0.3486425650008297,-0.2798938647314908,-0.2501145569475943,0.06291811656992685,3
4.2,2.025,1.85,2.2,14.375,18.975,4.475,8.2,234.0,114.0,105.0,123.0,965.0,1230.0,302.0,576.0,12.0,15.0,13.0,13.0,19.0,15.0,17.0,20.0,-0.33636998575826393,-0.44463571926906625,-0.31343714159548264,-0.4052139514431747,-0.2664458481667174,-0.1702996029181717,-0.03650489501393768,-0.36803481758287604,-0.06960550685939901,-0.12316323657794263,-0.1395087742789668,-0.38529132512709136,-0.30919382436115017,-0.308804735510171,-0.25568791435906335,-0.46996302669460566,-0.8397213630503227,-0.5600725078170004,-0.4456187692391996,-0.41414333048525387,-0.5179682012630747,-0.40352170581300195,-0.151035786058117,-0.34963906728890476,-0.4217420249516099,-0.11348569344782686,-0.21267379885534368,-0.354397807628359,-0.7115519646559504,-0.39085184959935154,0.0529255972694562,0.07730597439114682,3
4.375,2.0,2.225,2.625,9.8,18.0,4.225,7.65,247.0,95.0,111.0,132.0,608.0,933.0,275.0,489.0,15.0,9.0,9.0,11.0,17.0,13.0,17.0,18.0,-0.3762491705426754,-0.33238912812251753,-0.39792495314117227,-0.37828735171078576,-0.06810039363045803,-0.06297547232903943,-0.48736571805824985,0.006326452490329772,-0.17040163837648073,-0.06286779579653952,-0.3938884340806675,-0.2079367658105986,0.10616772574724415,-0.17104949423274948,-0.4292173773234439,0.0733066683062558,-0.41238810112015767,-0.12241146296487047,-0.2410976230004846,-0.242118441293794,0.09120275772786177,-0.19926567933240252,-0.15500222560430185,-0.13112427457334339,-0.3603678525441262,-0.37039607629299165,-0.21683337266853003,-0.38868162289285585,-0.26208677842504163,-0.3490061005318189,-0.14136390949276378,-0.3294438005152822,3
4.875,1.975,2.875,3.45,10.55,23.0,5.7,7.525,276.0,93.0,168.0,195.0,532.0,1336.0,342.0,458.0,17.0,11.0,15.0,13.0,15.0,17.0,17.0,19.0,-0.0924212644207028,-0.07889774870135455,0.09162106304352599,-0.1642093157452182,-0.023266939304412586,-0.2337863680360674,-0.23387759067547936,-0.22244552366768236,-0.3549698131216683,-0.16767749044879818,-0.3220171164425404,-0.21605954769326277,-0.2576358690240609,-0.38923638725907633,-0.2765161498706002,-0.26921124131416657,-0.14480606292766174,-0.25828406545032406,-0.3306336801328979,-0.2724203922643207,-0.32983075401317785,-0.2988629850851646,-0.3864745576747606,-0.46619216135990416,-0.35896001771493186,-0.4440554161567106,-0.2563137020886884,-0.4773193937949991,-0.3584055028584426,-0.3462021232578353,-0.014141042956298313,-0.040050206478705254,3
4.825,1.775,2.85,3.225,10.55,16.0,5.1,8.975,298.0,93.0,150.0,188.0,688.0,968.0,311.0,568.0,14.0,11.0,11.0,13.0,19.0,15.0,19.0,19.0,-0.3708915437554175,-0.29570385042570035,-0.12818308499210712,-0.18909542415590386,0.061451915435994396,-0.16118089313445264,-0.09843243261632137,-0.3484957459502649,-0.023158948532371326,-0.041089083233281185,-0.03494481233080429,-0.24728092778721258,-0.14978509730175882,0.1126486580001334,-0.05904171487932696,-0.24194915016111176,-0.46146279971513227,-0.1888778208128433,-0.4015053573042571,-0.2704524376403239,-0.36153368818117027,-0.4060607384440211,-0.19660499855079475,-0.32429113012597965,-0.4194374867844252,-0.3084064304090534,-0.24196737580759164,-0.1804854423020594,-0.5246386543702956,-0.3328597632654848,-0.3197950998978695,-0.14361530244462598,3
3.7,2.1,2.85,3.8,8.775,16.3,5.1,6.075,222.0,115.0,152.0,199.0,520.0,961.0,324.0,373.0,11.0,13.0,11.0,13.0,11.0,17.0,19.0,17.0,-0.027504375519365534,-0.045151053695361786,-0.08732005799959887,0.20656750429733256,-0.03219918459363668,-0.19076690232233726,-0.16454788271799858,-0.2562483331178734,-0.048050632584364907,-0.20288407742647682,-0.3400064468143386,-0.2073835377401557,-0.07153304666681323,-0.19300296668989345,-0.2205520970199078,-0.2581826455373088,-0.13637479863018362,-0.37507530842237397,-0.1458609083744951,-0.3413047725997703,-0.23406514892334343,-0.15028740150774925,-0.3814904651355765,-0.31063634405173335,-0.4258755932247523,-0.30160554755372976,-0.06542490647120625,-0.26525687752423494,-0.2385931411441837,-0.2380017237843117,-0.26329098534946166,-0.05658544109205773,3
4.925,2.925,3.675,4.925,10.4,20.95,5.85,9.475,319.0,140.0,169.0,234.0,594.0,1231.0,290.0,574.0,19.0,10.0,14.0,9.0,16.0,14.0,12.0,16.0,-0.4125568239330088,0.002164772891695265,-0.02196616882817467,-0.31813073197687786,0.16830525201660776,-0.2649086916969701,-0.1448281940982766,-0.2667174209383387,0.18179076183913373,-0.34951597184298994,-0.29039932958096404,-0.12180271632523405,0.21798093831047544,-0.40454831928415164,-0.07548593588612297,-0.05351632394438392,0.12335798142116182,-0.5735003581156972,0.15148695772406487,-0.3890515215628058,-0.10431597504412274,-0.5141327067707654,-0.18877459068554217,-0.12525686867922817,0.11243736330548393,-0.03323819003269698,-0.22312130322020113,-0.16220954215069658,-0.3661577911606015,-0.1760864020770634,-0.40537965999459025,-0.4483962311467679,3
6.225,2.775,2.725,3.1,14.7,25.225,5.95,10.65,435.0,144.0,157.0,175.0,890.0,1442.0,372.0,632.0,18.0,11.0,13.0,11.0,17.0,19.0,17.0,18.0,-0.40812438523486655,0.12296178980404948,0.24999584721539878,-0.16145102091192332,-0.016489424046953655,-0.23689531747645104,0.1328667416128262,-0.34698154579726964,-0.06986885704674901,-0.014456156818816072,0.05588942644800306,-0.2587813509509863,-0.11320254288588281,0.06419068275418505,-0.11705994332963471,-0.2723325718022633,-0.3069971235032467,-0.1739026801410187,-0.10247449492345485,-0.21238642745786804,-0.23883966788204533,-0.10943738662695235,-0.21948593374227685,-0.22644062738004314,-0.2917071548957347,-0.06352316946981855,-0.14413312497036682,-0.21825710801041007,-0.38704879068603065,-0.33688541611980394,-0.35155762769267995,-0.32172369214977226,3
5.3,1.85,2.05,2.4,12.8,22.4,5.975,7.0,326.0,108.0,110.0,148.0,897.0,1237.0,369.0,453.0,17.0,13.0,7.0,16.0,21.0,19.0,15.0,20.0,-0.005070231091416461,-0.14622988084247876,-0.004266897260501386,-0.18760088635839772,-0.23515032905675937,-0.28077604996615557,-0.10164519451944823,-0.31035058266944043,-0.0921337685426803,-0.18060239142270684,-0.23373566480128646,-0.3348777272008971,-0.23863117805652606,-0.1652633672934284,0.18936048036885267,-0.3156022333940669,-0.4313495696648234,0.08834880840477335,-0.14306447660971677,-0.36438967202983696,-0.12022600749194756,-0.1611862688903627,-0.07261969867897856,-0.0734982828577902,-0.4867354278355604,-0.3189551394133062,-0.2630246160687891,-0.2353662123206725,-0.2858969050355285,-0.14597107567108045,-0.09608636214069,-0.011702188561652803,3
5.8,2.425,2.525,2.7,16.6,22.275,5.4,8.975,395.0,131.0,138.0,165.0,1135.0,1430.0,330.0,594.0,17.0,14.0,16.0,16.0,20.0,20.0,14.0,17.0,-0.4181304855969782,-0.20828654927415044,-0.10646318220669278,-0.2087581537228958,-0.37212608473815056,-0.39548733476719744,-0.28437843262256346,-0.2361282348907912,-0.19332739072829444,-0.2117847244263558,-0.14817309764514766,-0.45684958230178374,-0.3910155097601591,-0.47892392321549493,-0.41009558013321895,-0.28086482224845216,-0.5299092513932784,-0.5090416849762772,-0.3443110329679997,-0.42005955462981814,-0.4998381081830742,-0.44453540637870603,-0.17755097328285746,-0.14898368143898097,-0.43985394405411704,-0.25375958474360166,-0.34712401641892504,-0.06036953378761736,-0.4412031733755987,-0.29966638008125346,-0.2857768708439089,-0.4722790853922167,3
