0,1,2,3,4,5,6,7,8,9,10,11,12,13,14,15,16,17,18,19,20,21,22,23,24,25,26,27,28,29,30,31,32,33,34,35,36,37,38,39,40,41,42,43,44,45,46,47,48,49,50,51,52,53,54,55,Gesture
6.575,3.075,2.3,2.25,9.825,26.0,6.9,6.9,418.0,175.0,133.0,133.0,627.0,1624.0,424.0,396.0,18.0,12.0,14.0,14.0,16.0,18.0,15.0,15.0,-0.1460927999663794,-0.4929965764879661,-0.09890878195247807,-0.4606179632594952,-0.2420575503153611,-0.07035218962615489,-0.16552487824399667,0.09796982400450381,-0.3037049556500801,-0.18922616732347197,-0.06917866901497137,-0.045045983636456836,-0.222037534445,-0.0006188230522931586,0.1956848422220267,0.1310464255170913,-0.36104817814101536,-0.41858053648507293,-0.02399313760296559,-0.16435153271533137,-0.38551204734861366,-0.06787831442362088,-0.10109006985444699,-0.2071337435540024,-0.3103773496953414,-0.1254572321908343,-0.23048602181556746,-0.22075334621978462,-0.19181012100815234,-0.35686785415800754,-0.20667781877454186,-0.3229915853487606,3
7.375,2.8,2.325,2.9,9.85,29.475,8.8,8.0,518.0,179.0,152.0,175.0,691.0,2052.0,539.0,523.0,23.0,20.0,18.0,18.0,20.0,20.0,18.0,19.0,-0.37942564750171376,0.09906218339111371,-0.07929591257614893,-0.2453852649637039,-0.2578565656646343,-0.0016042814919634994,0.06968085415147059,-0.31175894029498225,-0.6174443344769961,-0.6431619960897212,-0.4151292863596757,-0.2800563049630633,-0.5278531677570275,-0.2946085889471096,0.14291056095481858,0.033850722129949225,-0.6827187341817443,-0.4627196869085262,-0.4277866459227983,-0.3347367291724841,-0.6067855538381559,-0.4005479050063862,-0.25905192933739996,-0.4039057500821326,-0.4081572573473446,-0.5652125831001613,-0.2328915017006903,-0.4831728525778441,-0.4085349927536364,-0.3635634057305829,0.08645260837980119,-0.1784679479912421,3
7.825,2.825,2.675,2.75,7.175,30.2,8.3,5.775,539.0,183.0,146.0,157.0,477.0,1905.0,556.0,367.0,17.0,16.0,12.0,10.0,16.0,17.0,18.0,16.0,-0.37530697533852775,0.20263170180907217,-0.17336358732322776,-0.31076888213658493,-0.6542191178315356,-0.4219757751509036,-0.3936996226192411,0.012651263595886602,-0.3668413823557482,-0.22658140768043583,-0.4518339739918663,-0.1005569589383384,-0.3422063792928867,-0.5589434123297075,-0.31610558288481666,-0.29880302714907303,-0.2690982643172001,-0.28335875884949774,-0.20505448813335375,-0.2722281059030643,-0.42757542488575995,-0.1636626895654534,-0.18973152237944776,-0.3165041414449009,-0.6713211458076177,-0.43057499447180364,-0.3349195642158602,-0.31596318123060646,-0.2634881142106818,-0.18166881546872682,0.18494773349711008,-0.1651260121530199,3
10.125,2.7,2.225,2.35,7.475,29.0,8.8,6.575,674.0,182.0,125.0,134.0,445.0,2024.0,554.0,427.0,19.0,17.0,11.0,14.0,13.0,20.0,17.0,19.0,-0.24645517528911273,-0.22816634142325973,-0.11636467209255062,-0.28406386712215487,-0.23105902237083886,0.1574004209373699,-0.0881167477991088,-0.18836988430370952,-0.3673458302776258,-0.043070966006588475,-0.12905407127147472,-0.20250909046324572,-0.11009186882799644,-0.104002276883703,-0.012309566468679601,-0.2980920832121143,-0.0789437925729627,-0.06595315106237609,-0.10445911839892748,-0.3927567107429757,-0.29174905292334025,0.09624834193695737,0.022131452449564454,-0.22724191145335043,-0.3269642215728479,-0.17974840751702284,-0.21201358424463115,-0.1696956300595166,-0.3398307434105073,-0.2913107701377009,-0.20994858024240326,-0.3555821581650747,3
9.725,4.0,2.075,3.275,9.65,27.35,7.15,8.0,603.0,251.0,115.0,193.0,592.0,1604.0,431.0,520.0,16.0,17.0,13.0,14.0,16.0,16.0,19.0,19.0,-0.16990371142029725,-0.15790655631787406,0.06469606106335583,-0.06706546288391087,-0.28406160648532874,-0.08890611970041343,0.2885717468603897,-0.08331997650024107,-0.07712410961717366,-0.06934882601629273,-0.07127903018726349,-0.5042306602257426,-0.16352772096837656,-0.024293907322587748,-0.12132187663449596,-0.4523131371890419,-0.3565356064873152,-0.17790332025283315,-0.14427308092388788,-0.19558866203776978,-0.18491522566146495,-0.4185980859662597,-0.1725846960847389,-0.41253212460150135,-0.30238899952741605,-0.2268394457198977,-0.32122698787146925,-0.41839943001749325,-0.3742572992698251,-0.10090768610630506,0.009377653558799028,-0.3271012243067559,3
9.1,3.775,2.225,3.425,11.725,24.85,8.325,7.425,583.0,248.0,132.0,207.0,726.0,1559.0,561.0,428.0,15.0,16.0,13.0,18.0,15.0,23.0,21.0,16.0,-0.3159981581472251,-0.039292292813266155,-0.2168571671637334,-0.42940611993574884,-0.38472916406738905,-0.13123210110312608,-0.1932491717413701,-0.12242763263894434,-0.21618145056008423,-0.13108646291095785,-0.5029580724457081,-0.059032244606163034,-0.1947422199937129,-0.41590154926327416,-0.020016066153126965,-0.5014151649573568,-0.41170625041465353,-0.41341666849451836,-0.0860382554489599,-0.3292118973521331,-0.3890101638819254,-0.537813388658276,-0.170656541954674,-0.33459849733320607,-0.49522803902877693,-0.09955151100358042,-0.20090613846897498,-0.17497717227094567,-0.3517788022272824,-0.4643338714750825,-0.4377027643956434,-0.35331024117433235,3
12.175,3.3,2.325,3.025,9.825,20.7,8.625,7.725,850.0,214.0,131.0,164.0,582.0,1194.0,557.0,475.0,21.0,15.0,13.0,16.0,14.0,16.0,21.0,16.0,-0.5884748810252394,-0.2609692136697504,-0.18799291906189763,-0.1030350152277283,-0.43456824825041895,0.005674048209808895,-0.10477467385522114,-0.1556801067737567,-0.24578794514267852,-0.04813262697355532,-0.5559172171199612,-0.27333958666157165,-0.014622708838150748,-0.30621132923415667,0.06719886499293908,-0.5182445461576375,-0.509553065369249,-0.8615415973847368,-0.37153449095101926,-0.4995305264232756,-0.5028041247465389,-0.691820387459452,-0.20216645531096128,-0.14841403577395282,-0.6147249338628265,-0.37083755780307315,-0.2518885127697751,-0.004971761220689854,-0.23739189580086262,-0.17450323760797315,-0.3799802269376676,-0.1995861361645722,3
9.475,2.775,2.5,3.5,9.05,25.875,7.825,6.65,635.0,163.0,157.0,186.0,565.0,1736.0,465.0,424.0,22.0,15.0,18.0,14.0,21.0,20.0,18.0,18.0,-0.4465069000684008,-0.10352063049884708,-0.23925384867496097,-0.1507887741303137,-0.34242836203037613,-0.010764327720283373,-0.09037050305990772,-0.015273902968636434,-0.334830439531354,-0.01709870337122528,-0.08927200512727594,-0.25209841594556937,-0.22646199898399558,-0.31840001803393153,-0.10851799819376627,-0.20891004660574924,-0.8197419307966661,-0.6697245290927436,-0.7600328692849732,-0.5400808550400226,-0.42333752553095544,-0.22629628542957703,-0.5831058832964129,-0.20684437801995328,-0.42084842536384115,-0.3642046195623445,-0.27376890260728404,-0.1353233765559346,-0.17097669912838226,0.023770554545782897,0.05703739426387861,-0.15425476441295974,3
7.575,2.85,2.15,2.275,6.9,24.65,7.875,7.85,517.0,159.0,118.0,124.0,453.0,1668.0,494.0,484.0,19.0,12.0,13.0,13.0,17.0,18.0,17.0,19.0,-0.36865592532680697,-0.12325091246369349,-0.20190530660268552,-0.30738355082586055,-0.019078541531253372,-0.19908783909068511,-0.11605265619479846,0.10875957209632627,-0.41456904701004615,-0.32028262664074425,-0.3909398026630493,-0.3099841286624174,-0.2075184683990644,-0.0770643582711572,-0.14999488520329451,-0.3023043278497951,-0.5413005439091585,-0.30458100996691634,-0.003809144045016687,-0.05177704995209756,-0.6160499344108183,-0.4789588478359092,-0.21917431615147817,-0.2596736125188866,-0.7507305219568943,-0.5298756909398641,-0.7332690476040786,-0.615957973617788,-0.5631280104124347,-0.4624547466863259,-0.3859813424413376,-0.33238292109043627,3
8.15,2.825,2.2,2.475,7.05,25.825,7.25,7.8,541.0,155.0,117.0,157.0,420.0,1761.0,411.0,425.0,15.0,13.0,14.0,19.0,18.0,19.0,18.0,13.0,-0.4708425341133187,-0.37671381076296073,-0.07938372297636428,-0.16593670416053663,-0.008376272666182023,-0.1275261545329792,0.17301006658611476,-0.02119842757828518,-0.20655940514167845,-0.16413000319467583,-0.10520330959356948,0.0706298284058216,-0.4710335746566003,-0.24107929438075218,0.17019661072563014,0.3130343024766959,-0.24051290844794018,-0.18738971585682318,0.09877047765922578,0.03719835496382369,-0.4283309858901067,-0.10762753332822421,0.2110779165455161,-0.11291252521040694,-0.24668916110541697,-0.3273824647926032,-0.31489908639574377,-0.2008731057015465,0.032939504560789076,-0.2868203029066526,-0.21951613109460819,0.07012691707388129,3
6.025,3.15,2.5,2.475,7.975,24.45,6.9,6.675,383.0,184.0,148.0,145.0,554.0,1543.0,397.0,409.0,16.0,16.0,14.0,15.0,17.0,16.0,15.0,17.0,-0.22112107283714588,-0.3732791379461436,0.12592801969084672,-0.18217394526639932,-0.14407186357028684,-0.08578744399652072,-0.003822358287519381,-0.3836739079612054,-0.36370294432716216,-0.24929031585049077,-0.2083608537311607,-0.2637330193489189,-0.22625563640607801,-0.19103555084244234,-0.2137727003481471,-0.04122531848301012,-0.4511836204385922,-0.2057695352136153,-0.204793181556422,-0.34249045978533044,-0.21941051303635176,0.09522844045382489,0.09726472444973204,-0.3513295126693795,-0.4379282380313242,-0.4141218132949123,-0.44432083606722855,-0.503913207974758,-0.3343039560657171,-0.47918641885360724,-0.04567963448649286,-0.256127322231326,3
6.875,2.95,2.375,3.4,7.95,23.35,7.8,5.85,455.0,188.0,147.0,219.0,514.0,1636.0,544.0,348.0,16.0,18.0,15.0,19.0,16.0,20.0,23.0,15.0,-0.06861509134158078,0.03475238387028042,0.13831062121712406,-0.24341276923268662,-0.2825545698428509,-0.5989994851372294,-0.06484265629874628,-0.3638154801484106,-0.30142561090373027,-0.2325362296314899,-0.014623100363823296,-0.1240205413896118,-0.5524361642676121,-0.1527915004648743,-0.18000167718364016,-0.11662853379243564,-0.850404050184481,-0.6575096855412785,-0.6612403880396717,-0.4753248443032719,-0.6344243686523705,-0.17285422489649355,-0.03233897156143967,-0.13260426671421927,-0.6626574089205033,-0.3543366532420842,-0.3539734756025731,-0.3097605106431276,-0.2877144630219278,-0.34088034353791463,-0.2384517764954914,-0.10733266987560076,3
8.325,3.525,2.35,3.325,8.75,27.5,8.25,7.175,568.0,225.0,111.0,202.0,560.0,1806.0,554.0,465.0,20.0,19.0,12.0,18.0,20.0,21.0,19.0,19.0,-0.46288904446614937,0.013673862947271825,0.22678135599134178,-0.048039954297094754,-0.4716107127340901,-0.16509046624070947,-0.10458665609987988,0.024888363584121203,-0.015609234662316892,-0.07606244284685389,-0.31562758133460184,-0.14228901440475514,-0.44351077109916137,-0.015865655914258925,-0.3392123215494748,-0.27410644857603117,-0.43947138977567085,-0.13141598226879636,-0.013891241935430506,-0.13575298557465787,-0.33731222450933257,0.2814979923288059,0.11298476577580838,-0.10732253850691674,-0.5118272087565794,-0.1080297459542953,-0.006333965254997406,-0.1908955052237125,-0.3851519991453549,-0.32964393186437313,-0.11428547890545349,-0.03546656164931218,3
9.275,3.45,2.275,2.85,8.25,23.475,7.475,7.15,642.0,225.0,113.0,157.0,502.0,1314.0,412.0,477.0,24.0,16.0,11.0,15.0,18.0,15.0,17.0,20.0,-0.4642640606843477,-0.008472155931546318,-0.329317567017336,-0.36113873272914265,-0.558566644022841,-0.32651372495280595,-0.30070833352360754,-0.2670328297918023,-0.013818512099376491,-0.0593216645767452,-0.20580880874125518,-0.09594931052704392,-0.17908964454293047,-0.20834999772088167,-0.2621402283761442,-0.12083949659736291,-0.4167388486566481,-0.3872637931081359,-0.3096523292983364,-0.3001449658665884,0.08858048664928295,-0.027849926765518195,-0.1546371324481084,-0.05134487972364994,-0.038430394520797884,-0.07563225229434267,-0.18380041538807435,-0.17362611919676796,-0.35624161179714575,-0.06743381446278005,-0.19360550853082775,-0.12744526897369043,3
7.675,3.225,2.175,3.25,8.1,30.8,11.775,7.85,486.0,206.0,135.0,203.0,561.0,1972.0,726.0,491.0,18.0,15.0,17.0,15.0,21.0,19.0,16.0,18.0,-0.2564974276505735,0.01664698502088643,-0.18665736624796328,-0.20607467259110057,-0.38711912284774846,-0.2472007767013859,-0.06253960356497454,-0.33042931516981155,-0.14568152183151115,-0.06617795809452146,0.19218892072367696,-0.24129294920402505,-0.4332838442506581,-0.24102627474925098,0.008758236666765958,-0.3106145804754087,-0.5494741146278929,-0.34913653272878137,-0.4087087977249201,-0.5304243833604196,-0.5011009718328464,-0.3550732362588636,-0.18208452372133088,-0.08258985844465548,-0.5045846750546329,-0.5669001352163184,-0.15369898557797074,-0.44440474384733125,-0.3885237957429508,-0.08661576073885505,-0.13518947308444818,-0.3557725390174845,3
8.425,3.35,2.325,3.375,8.5,31.275,10.375,7.425,546.0,216.0,149.0,199.0,587.0,2040.0,582.0,462.0,18.0,15.0,16.0,16.0,17.0,17.0,16.0,14.0,-0.17540322584181314,-0.1309324178121833,-0.07281578988976427,-0.0060601467937398,-0.3267767118454432,-0.08623072513493124,0.020160434385924755,-0.037640500047189426,-0.14241626652526973,0.10765398240018073,-0.3362306182522921,-0.040257189739387224,-0.3258606961440509,-0.045506272242339656,-0.3414741018076334,-0.23924433350331992,-0.8355734465763507,-0.5828781273891245,-0.22469041690498992,-0.17086605985374706,-0.3215694718559031,-0.3388382376115338,-0.08090411517337136,-0.3306310578304829,-0.018174401543459475,-0.4869744363728288,0.02447757656393655,-0.4753067359129291,-0.29142792708251186,-0.30080565502663087,-0.2652321913150598,-0.3135638636402844,3
8.525,2.925,2.375,2.825,10.675,30.575,7.7,7.425,559.0,186.0,150.0,169.0,639.0,1860.0,542.0,466.0,22.0,15.0,12.0,13.0,15.0,14.0,18.0,17.0,-0.4404505302227817,-0.2513711012276509,-0.034397307094412584,0.08467354893312934,-0.13378049146838775,-0.07932972185868599,-0.3692825949356701,-0.09462639144707134,-0.33981346563047615,-0.2550471297343969,-0.33635385102859117,-0.11146038329892531,-0.15758610898002492,-0.11795242500963363,-0.014573689696248471,0.013137797942403768,-0.38465793045577934,-0.2620220791949671,-0.48368073146489204,-0.31269967783498465,-0.49366967212775625,-0.4777674378664628,-0.5927330620965733,-0.4721683560870643,-0.2961596769079432,-0.3479088056538102,-0.15296459823874117,-0.13233310784677443,-0.2950662374622843,-0.2981145994407706,-0.06181626800375696,-0.12903378259089107,3
9.575,3.175,2.0,2.15,8.55,28.925,8.05,8.825,658.0,209.0,118.0,126.0,546.0,1912.0,554.0,576.0,21.0,17.0,16.0,9.0,20.0,17.0,19.0,20.0,-0.5396833950683749,-0.2289130900641895,-0.14414097142862145,-0.2452328370089037,-0.33465123319482193,-0.06969478786401566,-0.0235081375004589,0.13959050237502518,-0.15409528551937715,-0.06914400205596649,0.19435259707510566,-0.22544942623769126,-0.2681151411166712,-0.10574102935429079,0.08647430525831461,-0.13529139196925155,-0.44713173580120685,-0.21070044529333073,-0.27410757887856346,-0.22074297460229766,-0.4660565130258264,-0.2979986930116137,-0.20724369729550743,-0.2372526378366131,-0.515364270154114,-0.49586392286835757,-0.08875222338514828,-0.27482964567198115,-0.1710615265783536,-0.2688426581295847,0.058264555992558247,-0.4613272918959327,3
10.05,3.175,2.2,2.5,8.1,27.425,8.475,9.25,550.0,211.0,124.0,158.0,546.0,1860.0,482.0,577.0,11.0,18.0,12.0,16.0,22.0,24.0,16.0,14.0,-0.1398213152698881,-0.06118619482597229,-0.2047689489239053,-0.0595005959734306,-0.33688658077843275,-0.11969887284530953,0.04025442118141365,0.08594956467370042,-0.09875499485548156,-0.17709495411737097,-0.06257759991124984,-0.160654472109637,-0.2989934569236244,-0.21122223282684652,-0.1336180895548348,-0.3189876326235391,-0.6536533395330988,-0.5147389288056639,-0.5054485802314739,-0.17345600401773265,-0.48008916402293883,-0.34411043686444565,-0.08775868822560455,-0.10973175714079135,-0.27999109491023816,-0.31591051133196146,-0.19224440149881356,-0.06894477825790171,-0.14165265567068044,-0.1833337741196324,-0.011817637584577684,-0.2745266770806419,3
9.525,3.375,2.35,2.7,6.125,23.0,6.35,7.675,546.0,206.0,134.0,156.0,427.0,1494.0,451.0,470.0,16.0,15.0,15.0,15.0,18.0,18.0,20.0,15.0,-0.14699995810007271,-0.22974071988872993,-0.1612890465542438,0.07680024718287176,-0.4158740031311041,-0.10630568529275325,-0.030031224638496615,0.05165928048707849,-0.25743828279029446,-0.48849446788663664,-0.06012967750998719,-0.27955217217885175,-0.24882485731800275,-0.3246231660772283,-0.09680767273833497,-0.21083030615912549,-0.5914787648914287,-0.36928449089723914,-0.38317287594098265,0.031982575706479846,-0.6380029777982817,-0.5362057911119033,-0.26756280354723405,-0.15023829811104325,-0.4997776054185024,-0.39806782400701624,0.08693182190271762,-0.10953880387110723,-0.4380115458884769,-0.5855565062981877,-0.31001711481919664,-0.5924685391379867,3
7.7,2.875,2.175,2.825,9.975,27.1,8.3,8.425,467.0,158.0,141.0,170.0,679.0,1641.0,580.0,549.0,15.0,13.0,15.0,15.0,17.0,18.0,20.0,15.0,-0.3159407609261349,-0.0686497357685729,-0.011394217631930539,-0.06063277570887453,-0.0469263902775149,0.16438481941591074,0.04970190582797885,-0.2396590853809484,-0.5690778140241877,-0.32157433122452755,-0.20046814400597873,-0.1778398983890341,-0.44386470347866225,-0.40280786505106164,-0.18207579132896123,-0.2160909668695607,-0.8298992778678939,-0.7046659929295681,-0.46658366772519727,-0.34994801579003215,-0.2984247135684805,-0.464447898650455,-0.26318822442265255,-0.5511589442404079,-0.6340636963628948,-0.7682597584905602,-0.37702283817096305,-0.49070054658620704,-0.47632229238577956,-0.3484413844666747,-0.24816638878876876,-0.28286082743194574,3
7.825,3.45,2.625,3.925,8.875,33.65,11.0,7.275,431.0,210.0,173.0,268.0,601.0,2228.0,703.0,448.0,17.0,17.0,16.0,20.0,21.0,20.0,20.0,16.0,-0.1330841924007647,-0.18082034856296064,0.1391551958106672,-0.2645185873965258,-0.3360457665450523,-0.10792616936802496,-0.13268782795144346,-0.36588643189357367,-0.4987920662182011,-0.18144099942333017,-0.08059864031904121,-0.3838130080212365,-0.5976111062910505,-0.29865467669501033,-0.18505027830357257,-0.2965062130200712,-0.7744563912000602,-0.638698575826068,-0.7131850465666046,-0.45093770888584694,-0.7504556288369526,-0.7612460730307872,-0.4700627846740939,-0.28856214406525776,-0.5633201760861057,-0.5614763910931885,-0.23674692016042245,-0.46941095265198196,-0.32983108457616905,-0.2868287953841131,-0.10589844258988364,-0.44437012956770844,3
9.125,3.325,2.35,2.975,7.05,26.1,8.95,7.175,581.0,205.0,139.0,182.0,501.0,1701.0,584.0,449.0,16.0,16.0,11.0,10.0,20.0,17.0,15.0,18.0,-0.2917998003778941,-0.20218673622412991,-0.025519497144877456,-0.2708950267215373,-0.5062093165105109,-0.49482636247533696,-0.21265007087597143,-0.37617946276496783,-0.28101280000634277,-0.2646102675969165,-0.30436059169310753,-0.23526223608686214,-0.49135035541820793,-0.41877736300935114,-0.45155158017996966,-0.43683812997695226,-0.3786265570420977,-0.0272097825457015,-0.3086422020428833,-0.33911383271863427,-0.4083171482239064,-0.26651729465859997,-0.16857389690611038,-0.37610086723679126,-0.6818584720967713,-0.6298365830369643,-0.525569927350929,-0.5890510207768224,-0.3780861135416102,-0.21950404835495915,-0.2931354439955556,-0.19749950084829224,3
7.275,3.025,2.675,2.675,9.45,22.775,9.275,8.15,481.0,182.0,180.0,173.0,633.0,1410.0,648.0,428.0,16.0,10.0,20.0,15.0,15.0,22.0,22.0,15.0,-0.19773741272648082,-0.007248996801083106,0.09562971548456489,0.21617958253074637,-0.22703522261719902,-0.6092184416448536,-0.20154819057454976,-0.13823461146093446,-0.49508851007542576,-0.42251425414543453,-0.15155635143993454,-0.24806087458399456,-0.38719460904972364,-0.40938965979156106,-0.17014690106940258,-0.38955417374902107,-0.29854259841888864,-0.4057058016346543,-0.3293229344395835,-0.32976950520948156,-0.2626879045043753,-0.2929884208877414,-0.2280816748265947,-0.25282809401394163,-0.641235375978279,-0.3081785098243802,-0.06394752571791242,-0.030083412746541943,-0.21072600530003538,-0.2768540761690384,-0.2643871055243715,-0.06162758261978425,3
7.7,2.525,2.25,2.825,8.55,25.625,8.05,8.675,451.0,175.0,153.0,186.0,549.0,1715.0,530.0,588.0,13.0,17.0,15.0,17.0,15.0,21.0,15.0,19.0,-0.0323480371301115,-0.13015329264548897,0.06214617894141124,0.06662868449302577,-0.3203150057031205,-0.06249817206519394,-0.09026198465013324,0.17099683842553545,-0.49784611737336226,-0.1426670467430818,0.09100138122892303,-0.1199412070320257,-0.46939955176078835,-0.11285622110420025,0.1102696693385715,0.1297379821297782,-0.32034659638067065,-0.2513917730942169,-0.31081923360479785,-0.0029992795789989023,-0.5638526600194568,-0.2617472613594126,0.01945959448584503,-0.04850184798480626,-0.4848794493493855,-0.21297997813799463,-0.0806320016078037,-0.1111565053078483,-0.4048694434877828,-0.02345314228468626,0.169023776107628,-0.03449505885278612,3
6.7,2.4,2.55,3.6,7.8,20.45,7.575,6.7,384.0,158.0,178.0,230.0,494.0,1408.0,478.0,396.0,13.0,14.0,19.0,19.0,19.0,19.0,17.0,13.0,-0.31273817565107215,-0.39455711516821335,-0.24249638230961265,-0.28293798098971473,-0.6410208655584206,-0.06608992037070335,0.3475781411868567,0.3004424893549106,-0.5541557068201264,-0.06487617700923946,0.37961329972592894,0.2291960916138389,-0.6751784111670086,-0.47800038008456736,-0.34172234437532745,-0.30564605385804855,-0.625421090468168,-0.5996019568787052,-0.42129361020611417,-0.2669807156306946,-0.6576073426974254,-0.4413536054729917,-0.4100012439836051,-0.21360931780168255,-0.36924314492985216,-0.08712433996967017,-0.11656502885025656,-0.264070749207017,-0.28699498187413297,-0.3115945563593739,-0.12919664740273656,-0.18659326089106681,3
7.4,2.3,2.325,2.6,10.05,25.95,8.1,7.975,440.0,132.0,139.0,165.0,661.0,1949.0,592.0,477.0,17.0,9.0,18.0,14.0,19.0,25.0,22.0,13.0,-0.022877920430646303,0.06616992302850505,-0.0945515376797446,-0.12133027016238013,-0.018626097507349126,-0.22409379000778323,-0.23168117998523988,-0.19870632332027627,-0.22616887025208324,-0.17374812921952834,-0.19488225808826948,-0.21624823741998137,-0.4792598112709405,-0.1449832073910462,-0.3623287596451221,-0.45479030976386614,-0.7184989513756334,-0.5200084929627568,-0.36255783832948035,-0.37608963479992624,-0.9635759374071939,-0.5721459794611322,-0.42292258053679577,-0.25419721469606005,-0.5522736905012503,-0.14105766025137667,-0.10094576971146976,-0.017318412777912195,-0.36074691652692703,-0.15725837098261683,0.045599654387943195,-0.10239304049273583,3
7.15,2.425,2.375,3.25,10.725,28.075,9.875,7.425,422.0,118.0,120.0,179.0,771.0,2068.0,708.0,456.0,15.0,10.0,10.0,14.0,24.0,23.0,19.0,16.0,-0.1493274615862904,-0.11771147355557444,-0.05585423118673375,0.029749918777565297,-0.08668233699122908,0.12122297264955825,-0.3423286934515264,-0.43775256967272586,0.08038161278686087,-0.03387408166461328,-0.3194349024246869,-0.24282113655586027,-0.07383231679121534,0.00023670969587566385,-0.17631440781835792,-0.3086077355204425,-0.6905464459695563,-0.27646590224978435,-0.5991755821694379,-0.40214309211197635,-0.7692484600966609,-0.11301082392946395,0.08707120254804625,0.13748700632997343,-0.7292986435727105,-0.25863553902312697,-0.35260413524803585,-0.1970937970468089,-0.2561551719563737,0.09885394582144896,0.14249764534496676,-0.11007967787572091,3
7.65,2.8,2.65,3.3,11.7,30.15,7.975,5.8,463.0,163.0,136.0,197.0,836.0,1914.0,520.0,350.0,19.0,15.0,13.0,14.0,20.0,15.0,14.0,14.0,-0.17048275860242157,-0.24057161652051934,-0.1792519182441118,-0.16204608824182187,-0.2640739179742243,-0.015936685076529816,-0.037917970568303636,-0.02824234440457522,0.005932327671404352,-0.39000208815856074,-0.42061901933906387,-0.23245532272398417,-0.0739390835310207,-0.020240472815600128,-0.5018171667890401,-0.13790533469542426,-0.6210981524064936,-0.10944829497309011,-0.41491179373867465,-0.22880219900023735,-0.35702204499143386,0.047692688349480594,-0.3673444920353791,-0.24667537877549547,-0.3609701303827713,-0.1383168801899702,-0.19323743861038595,-0.041797334769658696,-0.204217423220638,-0.004792767965459627,-0.2508520500155975,-0.020015929298950595,3
5.5,2.6,2.25,2.575,8.65,28.9,8.3,8.4,315.0,137.0,113.0,145.0,613.0,1775.0,539.0,523.0,13.0,8.0,12.0,14.0,19.0,20.0,20.0,15.0,-0.1000840074726171,-0.438845108070325,0.028483470917523724,-0.20001532747191927,0.06500625445798179,-0.1088425668045466,-0.08238029721347617,0.04694868711824836,0.04332495624974517,-0.3278919737007997,0.00395295955556601,-0.27782965140682364,-0.11730408890239334,-0.08464176394416216,-0.006139473895151043,-0.025985808367384948,-0.6757592365732885,-0.3999248266970726,-0.2927010661448023,-0.2734330958006208,-0.37022661476605107,-0.21777173033412658,-0.3578099557467228,-0.30490197115823825,-0.5869694722843533,-0.2823783059094555,-0.09756370755396243,-0.06283825132296209,-0.3190998292475383,-0.17363188581574862,-0.27551387984071285,-0.3128184424150668,3
7.25,2.5,2.05,2.8,9.6,34.3,9.075,8.15,427.0,122.0,111.0,177.0,627.0,2237.0,655.0,482.0,13.0,8.0,12.0,15.0,20.0,18.0,17.0,15.0,-0.1806618733025542,-0.30753530446846455,-0.23923209783173216,-0.08378607654015403,0.3539348947167752,-0.2841666979336651,0.3472390547996715,-0.1724806875272026,0.09140819709090416,-0.17872916809205766,0.18312400670164408,-0.2574715325850159,-0.43215354468966577,-0.24521947774876304,0.13740490131891195,-0.10394296020225331,-0.2949200986642374,-0.3394323870819671,0.038381057812875825,-0.07133463203193273,-0.4558448313706995,-0.32955537054248074,0.23805291146032417,0.07619399540080726,-0.8340167942116663,-0.48368240193758566,0.07273961781580036,0.17544839525927924,-0.37510531949083503,-0.35232671401418486,-0.027537499855735524,-0.19789939645162194,3
6.425,2.425,2.1,3.825,10.3,29.175,10.425,6.125,379.0,132.0,134.0,269.0,661.0,1941.0,727.0,344.0,16.0,14.0,18.0,20.0,18.0,17.0,17.0,14.0,-0.26089467912191644,-0.4332036238117204,-0.3348028597678903,-0.23169762600376217,0.01687005852329475,-0.03516352682506171,0.1628639307130771,-0.28555916677383797,-0.515993636201077,-0.2519062724895937,-0.13284253540820656,-0.11196217936383152,-0.7352909360857589,-0.32995229463913506,-0.10520122530986656,-0.07104051741170472,-0.4773083409455728,-0.5790520984695513,-0.29570450896307293,-0.26514169238296637,-0.4146415638119894,-0.2849557250524465,-0.2620295154362969,-0.1791871728993666,-0.6240305039408525,-0.3734160078554303,-0.46428235747279417,-0.33572952324991207,-0.11561610414472649,-0.214596259965027,0.05256808278062155,-0.16506928240699603,3
8.475,2.975,2.775,3.75,9.775,29.85,11.425,7.375,547.0,170.0,175.0,267.0,667.0,2078.0,837.0,469.0,15.0,13.0,9.0,16.0,20.0,19.0,25.0,21.0,-0.5192759255859086,-0.31231327271310827,-0.29227060938229427,-0.2837446490886029,-0.08951026452663723,0.04512937904936358,-0.13471029309131563,-0.20997539670978513,-0.38197336837647866,-0.03988390227706508,-0.3216616086750861,-0.3971792225912709,-0.6118539216382646,-0.09926207472189687,-0.27272196741973886,-0.48591699861456855,-0.5819767859420828,-0.28103643304319836,-0.018283403286351557,-0.3189616316132389,-0.8123022542851531,-0.6285202417052164,-0.22947966737968784,-0.10267970581794732,-0.8823284979872915,-0.4293215466765382,-0.29394890999869855,-0.17265043009728911,-0.3471301928648411,-0.08069989649681307,-0.32902413086741017,-0.2641191295653821,3
11.275,2.725,2.075,3.05,8.3,36.175,10.125,10.7,706.0,166.0,116.0,207.0,516.0,2642.0,630.0,698.0,19.0,14.0,10.0,17.0,17.0,22.0,17.0,21.0,-0.37265602482534393,-0.366785562964057,-0.11403288710290978,-0.23290408945624583,-0.35420895888474074,-0.10144578292088623,-0.2691799212069291,-0.35876170064563884,-0.10607190241596728,0.0409272532975017,-0.2425206659901237,-0.4310783063173277,-0.4981634920786557,-0.07589191192975285,0.08564121577195252,0.034452521641887945,-0.3585657484432697,-0.28902396530905333,-0.044441202467595524,-0.14877913296780468,-0.669332553724117,-0.4742111113712083,-0.22618371384098865,-0.21746559213107716,-0.3477708837584245,-0.05370949433292389,-0.2114287851655653,-0.21095270108510933,-0.5916296135804957,-0.26577691489861055,-0.3987996115793338,-0.3753831594036213,3
10.0,3.125,3.025,3.5,8.975,34.725,9.7,7.575,611.0,174.0,179.0,190.0,545.0,2196.0,547.0,457.0,17.0,14.0,15.0,13.0,13.0,16.0,12.0,11.0,-0.5080229195472138,-0.4479851298384756,-0.354768519635289,-0.16202867115991124,-0.30652007555641064,-0.37610745717765515,-0.20038723287511512,-0.1836413937016656,0.04868480732086908,-0.24331189916568613,0.20852153672098508,-0.4778545202489487,0.017748233950429213,0.07330523582173054,-0.06396018302679515,-0.43975262356657935,-0.35641800287787756,-0.44049286063287085,-0.1457592962428186,0.005651691253411707,-0.257390847867313,-0.30677468302302663,0.06737684618075152,-0.07390040799610695,-0.11626151255036371,-0.11068089351693552,-0.17575430521338734,-0.2679130683396714,-0.22613980090856922,-0.24297667840367093,-0.29201369427523544,-0.2519318398633545,3
8.825,2.4,1.95,2.85,9.25,27.875,10.1,8.275,606.0,158.0,108.0,173.0,604.0,1802.0,680.0,556.0,23.0,15.0,7.0,15.0,20.0,19.0,21.0,25.0,-0.5167468218563369,-0.34234557835668405,-0.39647626768133903,-0.25753105350450406,-0.3148650011222991,-0.5028313556250866,-0.00366055914141061,-0.0777654532030064,-0.24538202227252356,-0.46835262630610813,-0.06141063074877715,-0.06829823026024712,-0.1553676660438016,-0.2596719703695327,-0.27771325814081477,0.011670537373630892,-0.4925496142222225,-0.3840241157062394,-0.12254744772489509,-0.15515241585816783,-0.29999544797748057,-0.3712893941042475,-0.07649596316828723,-0.02030235037939677,-0.7211609877117274,-0.5574041300505022,-0.4178704082045617,-0.168863609239099,-0.6026525832348185,-0.276000360880322,-0.15301900669224855,-0.18149812268983645,3
9.375,3.025,2.3,3.225,8.95,23.35,6.475,7.6,656.0,205.0,135.0,209.0,611.0,1496.0,426.0,517.0,21.0,17.0,17.0,17.0,18.0,20.0,19.0,15.0,-0.488641779165426,-0.1993627081290245,-0.39538437574131946,-0.521658496175052,-0.4817103221888024,-0.09139952079738836,0.12542400071275667,-0.03225516708543085,-0.24092940282594805,-0.3631570991807656,-0.053880356854090976,-0.3187791981371856,-0.5087280279318802,-0.35126395690057216,-0.2667391296109028,-0.2312699476412297,-0.5687430291830224,-0.5518069641715169,-0.23930274506017227,-0.17438026539645188,-0.504578689868381,-0.14873327503126313,0.0012876493443478429,-0.013099946807062637,-0.5993470208596666,-0.28357418712719784,-0.08350332146040955,-0.2438803425200291,-0.5979141157383444,-0.19802806800916006,-0.33883905141555387,-0.6127246399336425,3
7.25,3.975,2.55,3.25,10.575,30.725,9.1,6.975,497.0,265.0,163.0,216.0,657.0,2055.0,541.0,385.0,16.0,18.0,15.0,14.0,21.0,21.0,16.0,15.0,-0.40079329674650777,0.011411288347936923,0.19862547364377325,0.03921074395432488,-0.33474837354084475,-0.03553905513177299,0.16180229094018286,-0.013254457041141827,-0.4597399251860813,-0.4558920875605673,-0.43852372853022265,-0.3117754136900147,-0.6092324959839824,-0.5392737901943598,-0.6135497669785044,-0.33932213041275183,-0.7918726360089346,-0.8767483090882366,-0.6077276939472718,-0.35153495904167326,-0.7184663753080675,-0.23713077273649483,-0.07106015638895496,0.0888802929017195,-0.48866904483653717,-0.4373694995119155,-0.5478743916724844,-0.20129210460104602,-0.0262577816436933,-0.294950202223893,-0.27575199412309487,0.06152322657197286,3
7.2,2.825,2.325,2.725,8.85,22.375,8.475,7.4,474.0,174.0,126.0,159.0,584.0,1419.0,470.0,459.0,17.0,16.0,15.0,14.0,18.0,18.0,15.0,20.0,-0.2999984862599155,-0.06836389567203945,-0.021430962193575966,-0.20345928738475,-0.2794473702206399,-0.2565321084417849,-0.10852702492468484,-0.21908102330162074,-0.19702777533166424,-0.2860054292559964,-0.3582656384597598,-0.13454713744904662,-0.23883434357405628,-0.1825133242218518,-0.3398851122539866,-0.35021763547480905,-0.7296005262506271,-0.5759008659736009,-0.43656100753666305,-0.4390803140446884,-0.49641351867638445,-0.11297411941456093,-0.23865320632291107,-0.3534591606180325,-0.29424633960154156,-0.3643241825591157,-0.5121345418534682,-0.22056643664588935,-0.35676654962434534,-0.2782689950813747,-0.47142339525138544,-0.2292751487439073,3
7.025,2.55,2.65,3.775,9.075,27.575,8.3,7.325,476.0,145.0,129.0,203.0,539.0,1658.0,557.0,456.0,20.0,11.0,8.0,13.0,15.0,11.0,17.0,20.0,-0.5196871100683379,-0.26115108402166193,-0.28055419411020543,-0.29311504248595494,-0.2539814860232056,-0.27805470507347213,-0.27060080316168567,-0.18300795444006657,0.03641989520493452,-0.24833420673103307,-0.019183688521019863,-0.4970577764587894,-0.10602151120729464,-0.21765931723769638,-0.21544647332648623,-0.38148490274156865,-0.5498039679308372,-0.5539581771927959,-0.5272089500487416,-0.4535776869414879,-0.3192970579232772,-0.1811846372917535,-0.15516396527196163,-0.2817378916635239,-0.6429176734744412,-0.4569774483033185,-0.4209229341073115,-0.44548503598919653,-0.36068767728633305,-0.38082112036584914,-0.07482515078078394,-0.26528761980786575,3
5.575,2.525,2.725,3.3,7.425,21.475,6.975,8.65,314.0,155.0,138.0,196.0,480.0,1389.0,442.0,579.0,13.0,16.0,14.0,15.0,23.0,19.0,16.0,21.0,-0.06129646337160012,-0.07829105058508877,0.1459963300075864,-0.10553693617720727,-0.30320751677982255,-0.17879628133199865,-0.0051816647176696345,-0.2809216561653425,-0.07164802526438584,-0.19207778712801682,-0.07808457089229681,-0.4292659215867041,-0.1870573137991669,-0.16610122770563923,-0.10929385709779772,-0.33605627279283673,-0.6590078515951046,-0.5009646708267367,-0.5136476525757045,-0.2249033694839299,-0.5177259332772791,-0.4832208363834302,-0.3149201851053948,-0.3276210472220911,-0.524116146425617,-0.4213095160938893,-0.2132759057676179,-0.3283666923941913,-0.38038242059370525,-0.04553091626312209,-0.07418248641814373,-0.12017479488779571,3
4.825,2.4,2.5,3.425,10.1,32.725,6.9,6.8,302.0,152.0,156.0,175.0,637.0,2214.0,414.0,396.0,15.0,14.0,13.0,10.0,20.0,20.0,16.0,13.0,-0.27152276738196485,-0.17718448544091633,0.09106123264926377,-0.012986550599979971,-0.09677305212762241,-0.46330852616669266,0.1201741220129104,-0.4465379808395348,-0.296233079065122,-0.4739344024732475,-0.24916305684410442,-0.48320231876171976,-0.07188237506738727,-0.4605840788078054,-0.19202061464225822,-0.4221975431271144,-0.46015106436102987,-0.33074632124646614,-0.35378294617737616,-0.21566438129046156,-0.5407625215352778,-0.4592862469428043,-0.15879275729800948,-0.3583490381685031,-0.37646848713259806,-0.7180018943418638,-0.35492831012952175,-0.4096326495132231,-0.27095241071444476,-0.3096255582496239,-0.3168119965898296,-0.14562155929084616,3
8.1,3.225,2.3,3.3,7.65,27.65,7.425,7.975,542.0,232.0,141.0,165.0,453.0,1769.0,441.0,558.0,18.0,18.0,9.0,10.0,16.0,20.0,16.0,22.0,-0.4141336414590122,-0.013037263774191607,-0.024504188364013513,-0.1262270061454028,-0.4882191769965406,-0.1711092247662539,0.05487206192719638,0.10775116205900687,-0.2852044839588218,-0.21854611597750875,-0.26412738093511795,-0.026714232338907105,-0.03688710850821918,-0.34744257037593324,-0.10167842836077573,-0.08022817870468875,-0.30913538140833824,-0.2371919927696067,-0.2870993979506924,-0.16355776603756733,-0.5259259599799917,-0.4695915614068887,-0.2822844900371336,-0.07245268900205931,-0.4070322883301259,-0.3380264655890775,-0.1764478333247525,0.0885465591922119,-0.27158574133148,-0.06900059554839362,0.04260232727926447,-0.47277467076876856,3
8.55,2.75,2.4,2.85,8.825,29.4,7.775,8.775,578.0,163.0,145.0,172.0,583.0,1917.0,531.0,578.0,20.0,12.0,16.0,12.0,20.0,18.0,18.0,20.0,-0.47338947246618707,-0.003781173955964502,-0.2749543079991142,-0.18815352974341987,-0.25944516380213817,-0.19233071684500905,0.07621161824310334,0.1287736633218368,-0.34604067907691005,-0.48301510626800087,-0.30373828819111026,-0.21887199687806863,-0.29578724648702126,-0.42402572624836804,-0.06064016614442667,-0.3161502214378273,-0.700123021015132,-0.8253014011378605,-0.47271953592999677,-0.3838787842758098,-0.4574615181244664,-0.22044284229643873,0.06972947699027665,-0.14310225773568125,-0.48210343673808015,-0.3429141341789585,-0.23032648432704061,0.08320283644367245,-0.5010403673342134,-0.22421461041283164,-0.0024767187187606492,-0.015391914496437072,3
5.85,2.35,2.15,2.825,6.65,21.5,5.75,7.325,365.0,136.0,138.0,156.0,424.0,1276.0,365.0,492.0,12.0,15.0,19.0,15.0,19.0,14.0,18.0,14.0,-0.24414151491483257,0.16452426465428416,-0.29077207313373515,-0.3635371131468233,-0.30936974279131935,-0.22455196998863294,-0.24814837636652615,-0.040612543780869814,-0.6017523665494896,-0.5748896201299512,-0.4564028928079157,-0.42873937435394477,-0.19467452378821973,-0.5491806348194724,-0.1701967766055943,-0.5367184863418357,-0.49858816295173225,-0.46270338209201034,-0.1814590826941544,0.11683913679635333,-0.2646192985254705,-0.24918402560729583,-0.010114900530223203,-0.16338039377859528,-0.5552345228988956,-0.47540569101721764,-0.24704593523531823,-0.23789556435568857,-0.4754314382570366,-0.46869508447015185,-0.2618879494137375,-0.1986229679154092,3
6.025,3.025,2.975,4.125,6.05,20.6,6.425,6.8,366.0,150.0,141.0,200.0,384.0,1162.0,379.0,410.0,16.0,9.0,11.0,13.0,16.0,16.0,14.0,16.0,0.02308589613231804,-0.10785582404778735,0.08704018252078384,-0.11337629341255409,0.12042890890261902,-0.1444295376815589,-0.2159223877281518,-0.12846933976112296,0.12989018192999527,-0.22248760120492084,-0.14451147599175795,-0.26983645387917204,0.05658285463979064,-0.15385968063203195,-0.3087882075629133,-0.07869965157465088,-0.4562528442703604,-0.261478551411066,-0.5055489672778295,-0.16774618125380952,0.049619434610298815,-0.3727763014655707,-0.06168509243874464,-0.22061728532065122,-0.08121840075117334,-0.38077586992341694,-0.15539809099236226,-0.1750182447064809,-0.3062044009871332,-0.4705172628512105,-0.2373824899703062,-0.23628605893598825,3
6.6,2.025,2.225,3.5,7.175,24.925,8.0,7.75,400.0,107.0,118.0,154.0,455.0,1445.0,483.0,453.0,20.0,14.0,9.0,10.0,15.0,12.0,16.0,15.0,-0.23421846965975787,-0.18278042529481212,-0.09334234716547303,-0.24568160178474846,-0.025021215433142136,-0.3224599286402561,0.12705452255822888,-0.2514538616564489,0.0573333803376996,-0.024910619444273818,-0.05552250324473211,-0.2929673946166972,0.11415358262710143,-0.11729659039190665,-0.1027318347923315,-0.28896551639139767,-0.2341578544509696,-0.17545204841214052,-0.4054275266230096,-0.14539298595300915,-0.15563482089131087,-0.20873936846792496,-0.1903476472552452,-0.17270353276790074,-0.29307029399638695,-0.3454351273535808,0.035986240968503745,-0.05267183604686701,-0.45174176171047065,-0.28774042768708524,-0.3508591091577042,-0.45261505395969437,3
6.425,2.7,2.05,2.625,7.725,29.65,6.875,6.225,390.0,165.0,107.0,158.0,454.0,1734.0,486.0,351.0,12.0,18.0,14.0,17.0,13.0,17.0,15.0,13.0,-0.09595114973397435,-0.2776513708273163,0.04573705766649301,0.005798094164864859,-0.3334811393188729,-0.1392972831396769,-0.15865298765950575,-0.3250563821404162,-0.1104334127200709,-0.22888266387848707,-0.20637134826964515,-0.3370417674362481,-0.2672358228338806,-0.10211015672817877,-0.20851654418100685,-0.04986116753410383,-0.17329098994994407,-0.45754720513995845,-0.21773693360618002,-0.22955642150850009,-0.3567315400551315,-0.11965423786713465,-0.14125893980877152,-0.15239267716193425,-0.5422294835967437,-0.39950052620440824,-0.14224840021331256,-0.33132854257478667,-0.10511199454551784,-0.0514996909573414,-0.0892888233887837,-0.2338224561716775,3
6.225,2.125,1.9,2.375,7.5,27.425,5.725,6.675,375.0,118.0,103.0,164.0,515.0,1751.0,390.0,474.0,13.0,13.0,18.0,18.0,17.0,14.0,17.0,18.0,-0.11454423532740132,-0.11737961211427946,-0.15144838891435888,-0.11779277526672713,-0.28553594221963613,-0.19478109856241219,-0.041901113623585486,-0.17382488267953589,-0.16812186303169332,-0.16083585984863313,-0.2909037073590564,-0.09055783303054901,-0.49172199283804213,-0.15367940602141333,-0.19014405890744238,-0.12784204219963283,-0.5523918610474859,-0.300286873015981,-0.25225441464242304,0.04433270095167519,-0.5358582200484124,-0.3095126435822443,-0.04518361216864373,-0.05179589753487234,-0.39050576075643495,-0.3010322807506053,-0.1657907973057241,-0.0028641498398833047,-0.32230056381569866,-0.14307575855006535,-0.38457648869828304,-0.34628855041448314,3
5.675,2.625,2.0,3.125,7.375,21.175,6.675,7.15,338.0,143.0,123.0,214.0,434.0,1378.0,431.0,476.0,14.0,12.0,12.0,16.0,17.0,21.0,20.0,19.0,-0.11302377757033054,-0.14114411811724697,-0.22883717500550732,0.06686068312495559,0.28203026079840277,-0.26329280665280397,0.18709548848907864,-0.21067537333229094,-0.5126341710070373,-0.4621932799020513,-0.314009180888421,-0.13259376319463467,-0.44573053306319693,-0.1701242403991327,-0.15921767737947193,-0.17035121296825853,-0.29836548982380284,-0.38652249181858905,-0.3879780319625099,-0.1484527453878627,-0.3969412296220262,0.008117899665251576,0.12353218798504986,-0.06636876028137893,-0.7220871892200569,-0.4299653835597633,-0.12286285875038021,-0.1736546377967185,-0.41321199428112476,-0.3338366699535828,-0.11394582576640462,-0.1108189258987922,3
6.6,2.425,2.05,3.2,7.55,21.725,6.075,6.3,406.0,120.0,125.0,191.0,464.0,1307.0,348.0,336.0,17.0,11.0,11.0,17.0,19.0,15.0,14.0,13.0,-0.13704351936861486,-0.004197048633892288,-0.14683145988579394,0.24785214062364594,0.051962309248214406,-0.1289130058603669,0.12399580681162507,0.08071490114468013,-0.334107549676211,-0.35576542659883287,-0.07459640091281795,-0.28117579005474036,-0.3283894382156804,-0.42679392300713365,-0.00729974325916675,-0.18521508587156954,-0.33030105725271985,-0.013345539505286984,-0.10115695391453204,-0.13823878542235507,-0.2665619770138782,-0.18260377482741452,-0.18020935248585535,0.015806768192957874,-0.28249500162533725,-0.3049275481991531,-0.2737222375959539,-0.3101330096909906,-0.10175484253621495,0.09164431239768911,-0.2276647513196448,-0.28163173625211896,3
6.975,2.425,2.1,3.2,7.575,19.075,7.575,7.55,452.0,147.0,125.0,205.0,468.0,1363.0,509.0,436.0,18.0,12.0,10.0,14.0,18.0,21.0,17.0,14.0,-0.09692293311677413,0.0230879199815313,-0.060097460734489634,-0.05945284535200695,-0.24834503401347344,-0.07192412609323075,0.019279209510108312,-0.20148349306852084,-0.1990457300548139,0.13491841721453815,0.057667149696760366,-0.4430572580543454,-0.3047045696982961,0.2598489565395153,-0.13290650816942404,-0.4516758952295919,-0.3646694285658802,-0.3616148200525038,-0.14054637513968626,-0.4470838755513779,-0.5189045091994183,-0.09175161997132053,-0.14191402607650064,-0.12128900050513342,-0.4223076347819536,0.05115532922161756,-0.2952211936679387,-0.4579375436010408,-0.1435495300770792,-0.24664865374282877,-0.10197507884220582,-0.601313325031983,3
6.725,2.1,1.875,2.65,6.775,14.675,6.675,7.125,432.0,115.0,108.0,162.0,433.0,884.0,399.0,434.0,15.0,16.0,14.0,14.0,17.0,15.0,16.0,16.0,-0.0616535154090976,-0.05114329553514624,0.029764585359401994,-0.10523789762593128,0.017944521642009676,0.001676138785803646,-0.06242819856415419,-0.1649524307577893,-0.1760151483558335,-0.13529842943715503,0.1156346011161429,0.05791283923547658,-0.6472167721849542,-0.4937307691873489,-0.1816628270921305,-0.025062211722874626,-0.6137470220034067,-0.47174136044064513,-0.38667264795774114,-0.2957147349391031,-0.26478598281989174,-0.16048556258797647,-0.15620167857653366,-0.17627001140877663,-0.4624808776240778,-0.2732779018208794,-0.2809760903023927,-0.2620626981995869,-0.5105720788349526,-0.794232395870378,-0.36192292812727633,-0.434733978383182,3
4.8,2.625,2.0,2.275,7.2,18.25,5.725,5.825,332.0,147.0,130.0,145.0,463.0,1269.0,369.0,370.0,13.0,14.0,18.0,17.0,17.0,23.0,19.0,14.0,-0.4276273155805024,-0.2532086450741723,-0.03419074347766988,-0.11251783573657956,-0.1569940230899692,-0.10678835890035637,-0.13393266260692469,-0.21099866915357074,-0.33043906279351365,0.0362047873371954,-0.024263615264797325,-0.12013028404594982,-0.5531150300848935,-0.2805897412185747,-0.016677506158785278,-0.14234330455184463,-0.507601387044701,-0.23922383197579222,-0.4509432395699965,-0.25500205725005876,-0.6154036953380618,-0.19118629206611845,-0.17429417782948556,-0.04940415239446577,-0.4978865376524192,-0.053135750777444944,-0.10403289860022599,-0.038938767767095414,-0.24528906027827954,-0.11015002531682809,-0.31230151439476744,-0.392725134893525,3
7.65,2.925,2.1,2.9,6.975,21.725,5.2,5.425,525.0,162.0,119.0,197.0,405.0,1396.0,341.0,330.0,18.0,12.0,14.0,19.0,16.0,18.0,20.0,15.0,-0.5659274528253213,-0.3658157971708641,-0.08518301937810374,-0.2889991426221976,-0.17128169344043162,-0.22299210035039527,-0.07501169677558173,-0.10283080456572807,-0.1873996638116353,0.013130360870431467,0.029347388137464805,0.07145973532408438,-0.30736793302992726,-0.17436194104621675,-0.05793268209479485,-0.20964822543031733,-0.3892631498841467,-0.5540574748346001,-0.11818657844500541,-0.4726412405317034,-0.7420501914769269,-0.6980730683027925,-0.3539636150555068,-0.378904547605723,-0.5932908373283959,-0.636422620927204,-0.2307235482672817,-0.3734955046868997,-0.26541196069509587,-0.3700161578302507,-0.13394994428521578,-0.2869263187117184,3
8.0,2.95,2.05,2.675,7.025,19.925,6.375,8.825,501.0,172.0,108.0,158.0,442.0,1091.0,405.0,614.0,14.0,15.0,13.0,13.0,19.0,11.0,17.0,20.0,-0.27863875004077177,-0.07948168057351822,-0.056703435458937086,-0.4172397525965363,-0.3759134537404188,-0.44468740329374046,-0.2769079288831914,-0.27937639625403055,0.12841155781554708,-0.20147700610226965,-0.3954947871159423,0.1852218981467489,-0.27880931864119196,-0.5407483938966141,-0.3634489559723415,-0.055360481543979816,-0.47898189080917625,-0.2508389983604727,-0.3682809735292946,-0.37477328258352754,-0.18713533300412125,-0.3652905239431932,-0.10670133465661541,-0.12782998987695193,-0.3036872399035438,-0.2554310638106215,-0.05880057319769004,-0.21455468911859268,-0.6442626891886221,-0.3638878783176079,-0.1748823557915476,-0.2870459434558278,3
7.425,2.9,2.55,2.925,6.175,24.6,7.075,8.725,487.0,166.0,152.0,169.0,396.0,1318.0,453.0,536.0,17.0,16.0,17.0,15.0,18.0,18.0,20.0,18.0,-0.11285942803402559,-0.23792290269024688,0.001319163772683254,-0.2503885391261568,-0.21031143044637476,-0.144560705620495,0.04519467301709845,-0.13373560826518247,-0.31419719152777087,-0.054320878506654395,-0.047505723143416674,0.07461322204170955,-0.35831235071458584,-0.16535278818900895,-0.2444420559656061,-0.07282653306022303,-0.44153812853785096,-0.4408098174916915,-0.35500735566872627,-0.26865178266984724,-0.22476800943987182,-0.35447445190119753,-0.14339101707869084,-0.31659098098186944,-0.5668948346669834,-0.4182938675910129,-0.19417732413694508,-0.19447080560985677,-0.2856046010127306,-0.24262604534212945,-0.1166784629450088,-0.38617561988333343,3
7.9,3.0,2.8,3.05,6.85,37.2,9.175,7.525,437.0,167.0,133.0,148.0,483.0,2227.0,574.0,477.0,19.0,13.0,12.0,14.0,22.0,18.0,19.0,15.0,-0.09792372536074184,-0.326372154516142,-0.09773992603434055,-0.11778645003077784,-0.3782901339273965,-0.23199881187291616,-0.13937239858992653,-0.13820967068718343,0.032204313224583725,-0.24332313711700607,-0.3023323500247736,-0.0995205517487936,-0.015922844492578647,-0.39840491339906337,-0.2821626405737825,-0.22326277797919916,-0.6956026040200703,-0.5899788023180297,-0.5499946660476098,-0.23340572973846602,-0.5586118244168783,-0.5244364273837651,-0.5995561879057593,-0.43313272227458155,-0.5164781767370572,-0.6227614515773067,-0.393609846061751,-0.3053404287149218,-0.42215062740837817,-0.25748296749749294,-0.16335972776749105,-0.2027410461836413,3
19.325,9.925,3.15,4.075,8.125,32.675,10.425,7.975,1333.0,732.0,166.0,224.0,473.0,2219.0,704.0,539.0,22.0,22.0,12.0,10.0,16.0,18.0,16.0,24.0,-0.8370007078073002,-0.5807290755116483,-0.12416541269914809,-0.002212214755764856,-0.8226374786871697,-0.15377872122975755,0.06010974876394622,0.021943797346026514,-0.1385754907411849,-0.14226373259028702,-0.2764736560339466,-0.4102512090539237,-0.0551410795459841,-0.2507927573675902,-0.06258343561374399,-0.40571021614719105,-0.23972906509483316,-0.011960929181410526,0.04089350066835176,-0.32197754774520204,-0.47522137626358263,-0.22353883110037814,-0.23221945162037794,-0.3203033676554544,-0.49173440787171685,-0.40161528141055314,-0.20280925968445215,-0.22193296218889266,-0.5202696207520167,-0.43655714074319796,-0.10964597833689389,-0.3973633982433029,3
8.325,4.975,3.225,3.425,8.95,24.175,6.35,7.175,537.0,344.0,183.0,195.0,516.0,1562.0,371.0,472.0,15.0,20.0,19.0,13.0,19.0,19.0,11.0,17.0,-0.4750654324453741,-0.23269701300040463,-0.045171433853396385,0.2659153043687843,-0.4209353683729384,-0.10995207325867323,-0.07444363067529687,0.28853017033613126,-0.44060382759982936,-0.4277506436462952,-0.3671605085805641,-0.3786973351965578,-0.18344505895925886,-0.17187800073130508,-0.06122183762884893,-0.1595097207452629,-0.3190148691131139,-0.09046685340380567,-0.2733523270446506,-0.12602060846696847,-0.36323545960647075,-0.17359434647239833,-0.10864799761994991,-0.2562292893875394,-0.31861710168913004,-0.2772866494741374,-0.1514755672911499,-0.424989607695299,-0.48507965368313183,-0.34990829721644595,-0.3522781091155958,-0.22209069618756686,3
10.325,3.625,2.575,2.65,10.975,28.675,5.65,7.425,689.0,225.0,169.0,164.0,658.0,1757.0,347.0,491.0,18.0,17.0,15.0,17.0,12.0,14.0,17.0,17.0,-0.564231519255025,-0.33337671759409276,-0.07947156548561796,-0.16400776528953964,-0.4594119690538318,-0.6021622972022918,-0.26600822182382305,-0.23920493980438223,-0.4579286899753842,-0.1670430537419176,0.12840895453086215,-0.111603739821136,-0.3474831463842842,-0.18735550912960122,-0.2064710625909847,-0.2518304214348328,-0.40606487920712475,-0.22225983149633322,-0.11229109260119166,-0.24447767378559795,-0.3541905281890337,-0.3147214707727369,-0.33176739667728194,-0.4235953532968285,-0.2631474415366751,-0.3590772838734264,-0.10067817078418684,0.20676311818435006,-0.3734554549736212,-0.1499170567800292,0.19639538455206929,0.1068841791797357,3
10.6,3.075,2.625,3.525,9.125,25.625,8.65,8.95,729.0,177.0,147.0,205.0,563.0,1472.0,515.0,629.0,17.0,15.0,12.0,14.0,18.0,20.0,15.0,16.0,-0.4795118259277217,-0.12229253167628427,-0.109847441136444,-0.3217795377880961,-0.09981773390433439,-0.00572049331208191,-0.03165939507705269,-0.36978185348705295,-0.022297483263250407,-0.12320554469792193,-0.03944261180506328,-0.11679202447228482,-0.3763843270240452,-0.3788961966812388,-0.2745310215004312,-0.22211438518261134,-0.27506583594626405,-0.3286772677775406,-0.0003373520887151616,-0.19612970859464568,-0.09313736324365632,0.12774307813623778,-0.031001505496133574,-0.21435053550072966,-0.391194660746462,-0.3737895044898115,-0.23083604313452363,-0.10712624310299938,-0.5067219618375897,-0.3320442864101372,-0.2869470931063536,-0.19821133273400227,3
8.0,3.175,2.475,3.875,10.675,29.475,9.85,7.45,478.0,193.0,153.0,250.0,708.0,1926.0,643.0,480.0,16.0,17.0,16.0,15.0,23.0,20.0,18.0,18.0,-0.3999876902128995,-0.3890236762052041,-0.1931433539488698,-0.3344876978411565,-0.25086172842933113,0.009392225957096491,0.003183196736024886,-0.0697325799889122,-0.21229950939736653,-0.3681153632141049,-0.16797338261379172,-0.10197766989067758,-0.6197566957201345,-0.622880612997738,-0.42096736527691786,-0.2639725325352248,-0.6398750817250165,-0.32369910779963645,0.04314114077606864,0.19101601630426543,-0.63405848114775,-0.036487211123481016,0.46832416317736947,0.27364973817437427,-0.41782559812113607,-0.18846702915470168,0.09625171066187391,-0.07553954528235302,-0.6049746542993302,-0.435335015064591,-0.3391701999850774,-0.020187797858770767,3
8.95,4.6,2.7,3.625,8.325,26.075,7.425,7.725,610.0,309.0,164.0,222.0,472.0,1568.0,409.0,505.0,16.0,19.0,18.0,15.0,17.0,15.0,10.0,18.0,-0.38953073452100756,0.12589377239260957,-0.11752838687725968,-0.19480528136286562,-0.8099953847059916,-0.6178885137150856,-0.1557200104302456,-0.014261202966960328,-0.42535175735337377,-0.8221910438846091,-0.20727879513699507,-0.43412361382396647,-0.48670315520005913,-0.7645282328731313,-0.24113642700346033,-0.25411485221055946,-0.37665378280171913,-0.37183493283602714,0.05522428481050599,-0.1064593876993568,-0.23998051389240307,-0.36418803835456054,0.00836188391833343,0.128015310099127,-0.10951280733829845,-0.058372934875239216,-0.09965963134064607,-0.15325061748255622,-0.48634563987196167,-0.076775594292601,-0.1195716136958935,-0.12770350510158224,3
6.55,4.525,2.975,4.0,8.65,21.275,8.95,6.4,416.0,278.0,144.0,194.0,518.0,1355.0,535.0,342.0,18.0,16.0,12.0,14.0,16.0,19.0,17.0,12.0,-0.20414714460540004,-0.021469014429003168,-0.07998781818750016,0.014528347874976514,-0.43862974388832426,-0.2991149393588891,-0.13849382095386764,-0.10320653093617345,-0.05227861710010183,-0.3797368759212956,-0.12177589552889743,-0.3617204537325212,-0.18286526209671128,-0.5575926211520885,-0.25375436200725743,-0.3020570263523662,-0.2554047874231198,-0.3294411450541362,0.00290925376829041,-0.18076965442546833,-0.35675434105073606,-0.15797109919847033,-0.2023949705151587,-0.2308069247427485,-0.24900553410639564,-0.36759702089372737,-0.07502168904795649,-0.43731821957004874,0.022476578145125173,-0.2144797811559541,-0.05120172248132248,-0.19768622989267023,3
6.425,3.9,2.8,3.825,9.8,26.55,8.025,7.625,448.0,238.0,141.0,199.0,655.0,1698.0,459.0,422.0,17.0,13.0,9.0,17.0,21.0,19.0,17.0,16.0,-0.5593965770177581,-0.38027318701812013,-0.15302424482361673,-0.26076135514401927,-0.3185910366796506,-0.11624689614104684,-0.286045587587389,-0.4484556160141878,-0.0812658270262108,-0.28078915591074927,-0.13482453432726788,-0.14501954654752408,-0.14611520742942027,-0.6029156277836222,-0.15445366750778242,-0.39911473655921986,-0.6377678549274443,-0.1811915541488059,-0.25494749256749394,-0.18500431888235208,-0.5537444541029087,-0.4103203911246731,-0.12492255987327928,-0.07952187014436646,-0.356923393337972,-0.6060420150567801,-0.33664092204300755,-0.18649302578760266,-0.13400471384470028,-0.10907284641128877,-0.26491591685022353,-0.18317099513234403,3
6.5,2.2,2.275,3.1,9.45,23.925,7.375,8.575,423.0,116.0,124.0,185.0,600.0,1525.0,481.0,495.0,15.0,12.0,11.0,17.0,15.0,16.0,18.0,16.0,-0.2634008731866566,0.07731643121426954,0.07694584037472572,0.03643492337994377,0.015171952901675943,-0.11478540379613547,0.0055143689314044245,-0.21463904493732605,-0.03657317812894284,-0.027050824691698824,-0.33863312255186534,-0.20666915058452967,-0.09812893740709501,-0.04331036394448358,-0.1026403174018637,-0.42029733628379107,-0.6248081688080962,-0.42589443332003224,-0.229310763846539,0.0030198116159760634,-0.2017198915948732,-0.12624550635659548,-0.19150287251336687,-0.15512812030093182,-0.6043303736978519,-0.5604346264306747,-0.4585992910705949,-0.45819196165396536,-0.22971693581799357,-0.4318347097881373,-0.27005634559298114,-0.4237236637892835,3
7.05,1.775,1.875,2.725,9.025,25.5,7.525,7.875,475.0,116.0,103.0,165.0,532.0,1641.0,480.0,495.0,15.0,10.0,10.0,16.0,17.0,19.0,18.0,14.0,-0.80828324929525,-0.5671594252114992,-0.40787419475709935,-0.19431007016703003,-0.48997675373217825,-0.11968869127278468,0.034399289519993076,0.08928786994340408,-0.22427075187522294,-0.01838823954209734,-0.17050798743329446,-0.17304857361713635,-0.23313819019478277,0.1353894410853812,-0.17704346979137975,-0.32051746853159235,-0.6430015725001039,-0.6126921710597787,-0.6576109137091618,-0.16766439472156566,-0.3381379908117266,-0.5665069361770351,-0.1576911576074081,-0.16720006575166393,-0.4112934505560605,-0.17610259929042454,0.05079645590217935,0.08503616539299447,-0.43551810268364,-0.3958530535702939,-0.3513332459005551,-0.18418632329909487,3
7.6,2.9,1.95,2.675,8.525,25.425,5.5,6.625,515.0,164.0,105.0,145.0,596.0,1589.0,362.0,362.0,17.0,9.0,10.0,8.0,22.0,15.0,17.0,12.0,-0.6174262054925898,-0.17735266833508975,-0.13360120565820438,-0.13092092925581172,-0.3127647305791606,-0.24865663908498659,-0.41175111370883394,-0.36141595037951624,-0.0752909521542688,-0.16133370797404126,-0.35523210724248483,-0.2587839725633829,-0.11941836526853923,0.014935235534798336,-0.12161484394644682,-0.4783714086292116,-0.5279601239797221,-0.21244642643435827,-0.29763904531822544,-0.398297356977868,-0.4235665501249392,-0.32989599992572427,-0.39665827915560903,-0.39125352540553887,-0.34596609260437594,0.16581579504596405,-0.07222735216723188,-0.10184442047972024,-0.12995550755532756,-0.11241857903479599,-0.32257763389710076,-0.12588061201253545,3
5.85,3.125,2.35,2.65,10.625,19.45,7.15,7.125,376.0,197.0,146.0,168.0,675.0,1180.0,469.0,469.0,16.0,14.0,18.0,17.0,19.0,16.0,16.0,20.0,-0.3938912698639864,-0.15946659960264803,0.11400915307057304,-0.03325737423403403,-0.6441104241456111,-0.4457122388529194,-0.3542913090385021,-0.3598431142118356,-0.30076385124862165,-0.04837151112169243,-0.12830168394515926,-0.1081948191643768,-0.338437769066436,-0.21519835089099842,-0.06741403697316546,-0.2658244400493172,-0.6185182151640043,-0.3985984605621857,-0.5214297513237753,-0.42197407609273846,-0.2420463505252197,-0.4166936481524886,-0.20622475936918602,-0.30784788536652075,-0.4512284319312734,-0.15411656079664374,-0.2746513143311788,-0.24583856129655382,-0.43021348458765635,-0.17031351367748473,-0.1446910903467423,-0.23415161396703446,3
6.95,2.575,2.5,2.375,8.9,20.8,5.625,5.8,453.0,161.0,148.0,138.0,588.0,1501.0,371.0,353.0,19.0,15.0,16.0,15.0,17.0,21.0,22.0,16.0,-0.29595756346225793,-0.05206878919367509,0.24387547508413396,-0.04941909589330082,-0.29693656305303257,-0.04986438243089646,-0.18829426726082454,-0.16808652498783747,-0.23127913045048604,-0.17971625314153822,-0.3119222617140646,-0.1417260948451478,-0.30919486616938574,-0.286152321342057,-0.40411967032409374,-0.2598162563530973,-0.5060747808682909,-0.21716232665036703,-0.12517622601379721,-0.2806368418783518,-0.6624495623595478,-0.7294617131683977,-0.30833371384709835,-0.3126619610231738,-0.5175570035870406,-0.1259438314549838,0.033266132065237465,-0.13196501155749044,-0.34299801579505274,-0.32826192645828706,-0.3246299701374217,-0.12722722740025624,3
7.4,3.5,3.0,3.5,9.525,30.125,8.675,5.85,440.0,224.0,167.0,172.0,652.0,2147.0,574.0,384.0,18.0,13.0,8.0,8.0,20.0,20.0,18.0,18.0,-0.3349731636767597,-0.1371754254462975,-0.24036600177415415,-0.2690764731791604,-0.20489438686927175,0.030129000287604055,0.07076598921511829,-0.1876463094182292,-0.3267010910654747,-0.21487659304670803,-0.43101183979196206,-0.4268238837634192,-0.08732585595420386,-0.4235624234267678,-0.22384042120725064,-0.2777262173282249,-0.36461331836754524,0.0063100997406639915,-0.3681886679931643,-0.16722406178398339,-0.6412487680728582,-0.20067897613828914,-0.22300302034985095,-0.052533078913648217,-0.5609076850018172,-0.3004631801683717,-0.23377939687250476,-0.3224200677934491,-0.4174613169052198,-0.1807131875789373,-0.3532843549830532,-0.26495511182826953,3
9.4,4.05,2.625,2.75,8.7,25.225,6.675,7.0,590.0,228.0,173.0,163.0,596.0,1665.0,372.0,417.0,20.0,13.0,17.0,15.0,17.0,17.0,15.0,17.0,-0.3334079886162873,-0.12016403294266463,-0.05678942653561411,0.1085316586841528,-0.20121162965095882,0.1573829612201768,-0.06598076789101825,-0.12362507465519115,-0.32300881791817126,0.08083769432844506,-0.2771717243779153,-0.17746713179922288,-0.28690355528356015,-0.059022630473534114,-0.28794959997685815,-0.3018726095786805,-0.44079636011463924,-0.19384172494824012,-0.3262468287462675,-0.14645645239187527,-0.5259888510989033,-0.13569819754869125,-0.5040822093947099,-0.4442830426426152,-0.17226083878275394,-0.28080694961715164,-0.15630750810743713,-0.4649198279509514,-0.28569977940042285,-0.20464986605342644,-0.40775193527486037,-0.23608574325776369,3
9.075,3.775,2.85,3.3,11.35,20.475,8.175,7.75,649.0,254.0,180.0,184.0,763.0,1323.0,548.0,473.0,17.0,15.0,13.0,13.0,19.0,18.0,16.0,17.0,-0.5539234885487468,-0.07664298939109448,-0.19723095769097657,-0.20236869114780637,-0.3124536083368413,-0.1259950333039021,-0.12895592264446432,-0.15203789376679944,-0.14157127724534382,-0.12949137819194023,-0.14999046434115357,-0.35442226293741874,-0.1803160567869266,-0.14214084788940337,-0.2864679400749059,-0.3301733498779712,-0.6184358914879292,-0.33976390487453423,-0.11091846130812842,-0.2150132566780242,-0.40464613917590275,-0.2976433719849963,-0.10296391898206436,0.019961127715378307,-0.4349792244058336,-0.5344479941658181,-0.1450310648915943,-0.40319174428354165,-0.22987755284673173,-0.15165482417841303,-0.1711043448316405,-0.2621803279261418,3
9.025,3.25,3.6,4.0,9.575,17.3,7.125,8.7,604.0,199.0,213.0,217.0,610.0,958.0,450.0,560.0,18.0,13.0,16.0,14.0,19.0,11.0,16.0,17.0,-0.45879272481592254,-0.19965190803439706,-0.26529379841989403,-0.15531101580990803,0.016387906037972497,-0.1376188851888449,0.0031038461577316185,-0.30708811170735995,-0.027539105076545164,-0.2528104495359038,0.05252558922224652,-0.36688757189052923,-0.027119120505158203,-0.19667303049589407,0.09935492972127354,-0.33606084191007535,-0.4327692004997999,-0.06806794322218584,-0.3324015387887482,-0.19284780603707355,0.14641546846709871,-0.1142430844386357,-0.12152775743233864,0.028804865718300477,-0.09626796298215193,-0.43510892950323005,-0.005885953511286272,-0.29890166779565636,-0.4318530913144617,-0.12050783420485456,-0.22083682995820506,-0.27480860641446914,3
8.575,3.0,3.0,3.2,8.775,23.8,6.825,7.6,559.0,200.0,191.0,191.0,566.0,1536.0,378.0,450.0,16.0,14.0,17.0,13.0,19.0,17.0,12.0,14.0,-0.2183088248995799,-0.0567100785505538,-0.15289883965351855,-0.09128956256783277,-0.3910450254481766,0.18963135939186054,0.19336905999543472,-0.012395294621211542,-0.28819327039480114,-0.010996609404751959,0.13063869557556565,-0.14385146866395226,-0.4575861630877841,-0.39903318195984105,-0.14777387161895195,-0.27052553070950364,-0.4612847698365917,-0.08755199972341228,-0.2646045431584943,-0.28619302175316574,-0.529329622628819,-0.21047079526435722,-0.09354453084872492,-0.12603819141331904,-0.39430093265787985,-0.42273205266448144,-0.33625362169126954,-0.13693250334199553,-0.4539793202473263,-0.36807811187075,-0.3113814321899894,-0.2929227257556296,3
7.825,3.025,2.525,3.15,9.475,30.25,8.45,7.85,539.0,190.0,126.0,166.0,609.0,1850.0,460.0,515.0,18.0,14.0,11.0,13.0,20.0,16.0,14.0,15.0,-0.3012614437117743,-0.13916759249457755,-0.3300194550929892,-0.040635742510123585,-0.472983721982623,-0.20848693685494074,-0.028905309811176047,-0.2010923241490985,-0.24379262577422803,-0.685112164372039,-0.3066396971140886,-0.493029191689542,-0.13799614156841303,-0.452801410140167,-0.13614076158253477,-0.31893842447055903,-0.36680673089124133,-0.17026742756909008,-0.11017954875277856,-0.14000481917365368,-0.45486259684312264,-0.4679981416219518,-0.4178909442872598,-0.31342903041735376,-0.26423454454761863,-0.4497855232782161,-0.3384521595735805,-0.4196359604221371,-0.3230697489130238,0.06467560047928633,-0.11316580066294021,-0.32375493422635043,3
11.35,4.4,2.35,3.675,10.1,29.35,9.775,8.375,708.0,303.0,125.0,206.0,629.0,1974.0,628.0,518.0,19.0,16.0,12.0,17.0,19.0,22.0,18.0,18.0,-0.44422280768877315,-0.1887556217135556,-0.37223619197915425,-0.38416644569015934,-0.4192874148082908,-0.2457328832065836,-0.25324677650795474,-0.25861479883512534,-0.2832964127074453,-0.33720141366217654,-0.44650669734480897,-0.46564707606478706,-0.3725301614473115,-0.3487292922117591,-0.39888453915227806,-0.5871496454495876,-0.6558191268920885,-0.4512574403842679,-0.3997125776542148,-0.09968713185855058,-0.37133204532756664,-0.05524549724533029,-0.17509166356160233,0.007596613147562834,-0.41012125442031827,-0.07744108093575566,-0.11293002638241068,-0.2080932379345759,-0.3543842353257327,-0.08985327815773286,-0.18621379288032208,-0.1574193657730699,3
11.075,4.8,2.3,3.275,8.275,30.325,8.425,7.1,722.0,341.0,133.0,199.0,512.0,2050.0,590.0,447.0,16.0,15.0,15.0,16.0,19.0,17.0,17.0,19.0,-0.2797276910086688,0.07576904896294688,0.14182461888325112,-0.25116178733865474,-0.6141047334908711,-0.23490111219290527,-0.02572674392658459,-0.05132071405106302,-0.24300845651677808,-0.3166118715849898,-0.16472962123268436,-0.24789561420559786,-0.4289210963737036,-0.2691590332706876,-0.2626146159044613,-0.2994600090581469,-0.590183625761015,-0.5204828733455227,-0.2909030487827431,-0.021682605315211333,-0.49903215934792605,-0.18679612604972137,-0.09727512039640382,-0.24477338110718055,-0.4919334119353205,0.012321512083825354,-0.0733206543570295,-0.3709158815688365,-0.2354298483118867,-0.36359481131890553,-0.09380228112588135,-0.40824591473641425,3
11.025,2.75,1.85,2.925,13.55,32.1,8.6,6.225,761.0,180.0,75.0,177.0,912.0,2114.0,577.0,393.0,18.0,16.0,7.0,13.0,20.0,19.0,16.0,16.0,-0.36795399754704766,-0.10589532555807155,-0.1373253180416114,-0.26793828929879016,-0.5874174026813436,-0.2247342391207694,-0.1579152642577201,-0.24461651533189255,0.13592022422323058,-0.045061497855983096,-0.27185856304027145,-0.14361172203157183,-0.30763406479321975,-0.16250540300318636,-0.38158876644220974,-0.2177011097189151,-0.615547827449914,-0.3451270891452509,-0.0657901041788915,-0.10549637619908135,-0.49607920794406046,-0.22867240790678373,-0.0813376036089002,-0.11550422661348282,-0.5975040524405323,-0.42991562827586843,-0.24473872441757766,-0.3669646877276862,-0.39351661534389976,0.009508392839434774,0.2436268332905675,0.022137187431718094,3
7.0,2.875,2.2,2.55,9.75,22.6,8.05,7.5,469.0,179.0,125.0,151.0,595.0,1370.0,503.0,498.0,19.0,13.0,19.0,12.0,18.0,14.0,18.0,18.0,-0.4153116064417899,-0.19909874364690053,-0.4124994810353315,-0.023298784188170964,-0.37559449488845664,-0.28044394259253236,-0.23511781601539783,-0.18010380859342406,-0.1331633359792571,-0.0832216364588717,-0.22293830031684064,-0.13625094048249792,-0.44976307277622485,-0.27789153451224513,-0.24050591775113322,-0.0784981100615959,-0.428940493723838,-0.48752696737548956,-0.23331319926718924,-0.3841581850669718,-0.2892196904132662,-0.24690136192937512,-0.005786706403985665,-0.27033492730693415,-0.2403849204997455,-0.06736277074812717,0.024977592945495584,-0.5662786963437049,-0.39849892923440755,0.08132851282011307,0.24414496661674573,-0.033471447542136365,3
5.075,2.875,2.55,2.925,10.0,25.525,9.5,6.925,319.0,203.0,182.0,189.0,698.0,1694.0,557.0,466.0,16.0,19.0,16.0,13.0,22.0,20.0,19.0,18.0,-0.21982344521433628,-0.25146372716327847,-0.10286893189590095,-0.2474602416009611,-0.5540785616115669,-0.14514462092524782,0.10686817030571341,0.13637129510752635,-0.4502475414935788,0.01786918541232806,-0.23204791014912213,-0.3621832305560054,-0.24913797882543393,0.15346340928595467,-0.41142228889937243,-0.4000514154422751,-0.5508294493873729,-0.012364018061809128,-0.25852549059904306,-0.2447797482333656,-0.4449885354351416,-0.05108232416839448,-0.1662580597991401,-0.27305984975347125,-0.39154550094915175,-0.3609797663137251,-0.3517899880983219,-0.22692955417308053,-0.3579944580436916,0.1042135068656761,-0.09568914003949171,-0.36710416436680493,3
5.3,3.3,2.55,2.575,6.425,23.825,6.925,6.6,342.0,216.0,152.0,150.0,435.0,1586.0,434.0,485.0,13.0,16.0,13.0,11.0,18.0,20.0,13.0,20.0,-0.2394673528081704,-0.22185433213522884,-0.1828840528303194,-0.08778174657316544,-0.3530102856797795,-0.12593878457564658,-0.2976124460783677,-0.15328911112475946,-0.3312940141312598,-0.10399954052863469,-0.3355428008200859,-0.06528942177741197,-0.31467001963607905,-0.001826458121718725,-0.3840044963218247,-0.2751944837549309,-0.35389382944195624,0.0016918554190557275,-0.11420277753090576,-0.0689482544792942,-0.4654244306029057,-0.07621753709913347,-0.08587639345039653,-0.08176170341596581,-0.4310846685751127,-0.40600634842498506,-0.3976190956496872,-0.06687853323426617,-0.30750527057979016,0.08094090624979222,-0.40301185270809925,-0.12599333646084557,3
8.975,3.65,2.675,2.4,9.325,19.225,8.775,8.675,532.0,230.0,164.0,144.0,624.0,1249.0,535.0,585.0,11.0,16.0,11.0,10.0,21.0,19.0,18.0,18.0,-0.18620741301643629,-0.1041492529797643,-0.13888326434015374,-0.22680069559371585,-0.3463745426838222,-0.24442491432925342,-0.22438543995350954,-0.30986454276569175,-0.6539738655574215,-0.7304269190165721,-0.5265680879240521,-0.39635461706472325,-0.3868206752842253,-0.6390910441435015,-0.3268961096782379,-0.26682823172227593,-0.4152228088023726,-0.40324051029565083,-0.06321594405561784,-0.09688607483362793,-0.36966785531533125,-0.11798519264076936,0.22583598503497201,0.006094340956791325,-0.5171859014941951,-0.4364172124923453,-0.33179476025197935,-0.39819072961337815,-0.43244809158709785,-0.10423053160805243,-0.05471961343855889,0.10097692966655723,3
9.9,4.9,2.775,2.9,8.65,22.6,10.125,8.675,556.0,283.0,162.0,141.0,545.0,1646.0,665.0,527.0,14.0,13.0,14.0,15.0,17.0,21.0,13.0,16.0,-0.06362696112052163,-0.1817435250505633,-0.28256743705573467,0.041353832030234676,-0.15141483833836386,-0.2792138946585315,-0.1858435385858534,-0.05072303882287712,-0.28837502770162754,-0.2772868663995841,-0.3554222600220922,-0.3771259450210556,0.08482020895566719,-0.2661006364623084,-0.3931543170904524,0.12958707584345008,-0.12345694795135144,-0.40968710075821857,-0.25980172536297647,0.058980946312585394,-0.6413707324594686,0.0066182712627017165,0.1903014544465561,-0.03601089817978363,-0.5420305541631197,-0.649817209398124,-0.3555403857508377,-0.3978233610668721,-0.5065591215936409,-0.5864930170818767,-0.36718581762849917,-0.18157340795690527,3
9.9,5.7,2.625,3.45,9.85,20.7,10.1,10.775,620.0,386.0,161.0,197.0,577.0,1212.0,678.0,563.0,18.0,19.0,13.0,17.0,17.0,17.0,21.0,13.0,-0.41907494405303525,-0.4790341178653649,-0.14854309284564776,-0.08728132735771817,-0.5967676440026946,-0.4613493468212222,-0.5180879299586674,-0.3514343067883897,-0.4975026591028336,-0.310557333499767,-0.5968055695240005,-0.3561987948423525,-0.1728740964543928,-0.3863378784514291,-0.25302128875026286,-0.435609494896936,-0.26764692054899264,-0.38608532587821637,-0.10767678150343339,-0.3390661947037096,-0.3197614668392253,-0.04018480207406665,-0.011695099260047567,-0.04080897751981089,-0.5854547887939995,-0.3836461136739333,-0.3477386209382167,-0.22340481182857622,-0.32690190521757345,-0.6110681096456418,-0.39512302818875755,-0.42611075964371,3
9.05,4.2,3.625,6.675,11.775,31.05,9.975,10.15,554.0,278.0,193.0,334.0,796.0,2094.0,658.0,606.0,19.0,17.0,9.0,11.0,17.0,20.0,19.0,18.0,-0.4648576749607737,-0.2715226151070766,-0.04204075401339443,-0.06195463820448314,-0.45156657431487573,-0.10270924721920935,-0.32235284614898096,-0.2667761376233758,-0.2972765786168274,-0.1340881577555514,-0.521502219051097,-0.35652121020052513,-0.27235787759561336,-0.1574105329238997,-0.5025036671045999,-0.4132376921683281,-0.6575163411668877,-0.46648699783652525,-0.26851071202258797,-0.22944210790867364,-0.5042189430760439,-0.17701026623970098,-0.3308854587963675,-0.024123853422765136,-0.44456391352371094,-0.4597776544333761,-0.3967456735942337,-0.39847542534977165,-0.3012364979491791,-0.14317619402210296,0.07750426977515988,-0.05830943581782208,3
8.175,3.45,4.05,10.225,13.225,39.325,11.575,10.05,550.0,220.0,218.0,587.0,903.0,2732.0,770.0,675.0,13.0,13.0,15.0,17.0,22.0,21.0,18.0,16.0,-0.613538605886703,-0.458525497686975,-0.3119181920086709,-0.2568135160322296,-0.3720450913030308,-0.3137978262890938,-0.29101803390035436,-0.16835739884151016,-0.26684954406195976,0.006070005573420998,-0.4906221823252309,-0.42094142014591795,-0.36011184074485725,-0.04122644522515519,-0.49010534972287567,-0.4859304443858941,-0.450716707969617,-0.03551682079906735,-0.07813750464365911,-0.22598118654931976,-0.5174361673882776,-0.022385906758176168,-0.09200688930466788,-0.1685665814811369,-0.35788539167351807,-0.037058503525317484,-0.1399484649806681,-0.17128829511715196,-0.521258130732673,-0.14269036387200199,-0.02921809295983838,-0.0034108633901075744,3
7.475,4.2,3.7,11.025,12.025,33.725,10.95,9.75,503.0,248.0,211.0,669.0,825.0,2205.0,758.0,664.0,17.0,13.0,14.0,16.0,19.0,15.0,20.0,14.0,-0.4740928459185352,-0.4248097178935569,-0.19448508756410143,-0.25455938632990105,-0.36389389874211603,-0.34475393728132425,-0.42554153506264925,-0.29161762033677713,0.0005557703771415847,-0.268066133082177,-0.014955808054421933,-0.3339844901966916,-0.31135019543790704,-0.10607329165745412,-0.24483162420699964,-0.20225880660223983,-0.5294409570974592,-0.48000671939006906,-0.14662065142188815,-0.4126209449338328,-0.24110699079818718,-0.09912937600062677,-0.11422707413294798,-0.24233334091900602,-0.6539659588285702,-0.24715906472203578,-0.14401966981389572,-0.2636133636103656,-0.6195857482789808,-0.32642753704517125,-0.26938685496795767,-0.20392016269414065,3
8.325,4.2,4.2,9.4,11.95,31.45,12.425,8.925,550.0,262.0,269.0,588.0,832.0,1942.0,791.0,568.0,23.0,19.0,17.0,17.0,19.0,19.0,18.0,13.0,-0.4543262313311022,-0.12147954494791804,-0.1681230491478067,-0.2285258674312661,-0.36267654050766185,-0.025434603885051595,-0.06813144337428331,0.014690340395681087,-0.5904198821610317,-0.34818630531917893,-0.41415685427196597,-0.38635304863639447,-0.4011153386030418,-0.32882820756848025,-0.32625947490807805,-0.31789474919060984,-0.6623673651266859,-0.44244294761481756,-0.38142555105005427,-0.23884956738635724,-0.44655338846428694,-0.46707383008302306,-0.2654840854994242,-0.3035417339328006,-0.6654675721102805,-0.6270502602665613,-0.49886446428917625,-0.29064959893740583,-0.5764785677393522,-0.3929953041352059,-0.08004770018919864,-0.0824686120725099,3
9.425,4.175,4.025,9.025,13.4,35.8,12.95,11.2,537.0,248.0,236.0,514.0,857.0,2198.0,855.0,733.0,14.0,18.0,14.0,14.0,17.0,20.0,20.0,20.0,-0.10756820402397847,-0.1996272069589379,-0.17949023919778231,-0.28075125239135273,-0.3524246315864478,0.00280983153066422,0.19510543161537575,0.03806635371262853,-0.4325590386318566,-0.4547340282551036,-0.3411257970668965,-0.44300447581594443,-0.3664491038567023,-0.5441692902409845,-0.36745055158658846,-0.5944713400823834,-0.3844356809992362,-0.24217854848626752,-0.05816604868437431,-0.24997313869604235,-0.3862869496859329,-0.2631512041482232,-0.10473455577753114,-0.07751217253546269,-0.4727249094599607,-0.3547878731582825,-0.1722460800206574,-0.11045226805789876,-0.6553456067931046,-0.4449611943001708,-0.2898941581422758,-0.22652972041775793,3
7.875,4.975,3.15,6.6,13.075,27.525,9.925,12.55,460.0,343.0,195.0,367.0,833.0,1896.0,637.0,815.0,16.0,22.0,13.0,15.0,19.0,18.0,21.0,19.0,-0.14089227653505573,-0.05753478451308442,0.05919157175609658,-0.11868821473888609,-0.163132124401142,0.1449531422006966,-0.20785146367191262,-0.16733556089042315,-0.19904294966144268,-0.20262190403577787,-0.19099951175330263,-0.25734185545432053,-0.14389350785325644,-0.15533279787009174,-0.14657624254369925,-0.4195171394357771,-0.6112023166064242,-0.10019096474679512,0.15496238327373055,0.03722966353076625,-0.364010856727985,0.17804599957841832,0.15407382734246905,-0.1883282990696593,-0.2056569004315225,0.023828833139080022,0.0113446346564412,-0.3334862088307189,-0.3752430343326155,0.054051348077772676,0.013182920431635835,-0.1884197400548006,3
9.325,5.325,3.075,5.75,14.475,22.925,7.775,8.8,689.0,346.0,179.0,339.0,997.0,1459.0,479.0,578.0,24.0,20.0,14.0,17.0,18.0,16.0,17.0,18.0,-0.698558864207566,-0.26507711926474287,-0.1337312791518521,0.002032942926379197,-0.5784138286741652,-0.21082045797945176,-0.4123060022854161,-0.4713554147988183,-0.2366180122647511,-0.3577493254726965,-0.1561339216941979,-0.18196117494727657,-0.2683914799996597,-0.4138290913324251,-0.32129614495900266,-0.01457140032881854,-0.7498860909001112,-0.44960127295878816,-0.31934975371125596,-0.09762551168691182,-0.2991599497010063,0.21041660680259475,-0.11987165349527655,-0.23466711731604248,-0.15762412304323106,-0.24503169916614082,-0.1690957461028161,-0.21769276931217996,-0.5519305228823893,-0.2092326363506532,-0.02459363434879347,-0.12958682519854967,3
8.575,4.075,3.125,4.65,15.775,27.125,8.95,9.475,579.0,288.0,202.0,303.0,1079.0,1802.0,526.0,583.0,20.0,21.0,15.0,18.0,21.0,19.0,18.0,16.0,-0.3392789862769558,-0.05810481214937717,0.05232521827460708,-0.254580106424235,-0.44353399579224995,-0.3288285112179582,-0.2826821329234809,-0.43202477228341374,-0.4102425650562732,-0.33051055387522443,-0.37760574315363554,-0.37884105184980826,-0.41132000054006246,-0.2002896773767761,-0.30581377226209583,-0.25388132365933574,-0.845911698846021,-0.5859966531423747,-0.49918605875223776,-0.29691096468113515,-0.4071256942932392,-0.17915568249097477,-0.026107555980573835,-0.22087310763159132,-0.28050308525306417,-0.32960080960680893,-0.23344051012214367,-0.18427456937840586,-0.2959463052939501,-0.1682827980084198,-0.238252869106345,-0.2966508242549061,3
5.825,4.3,3.825,6.5,13.1,32.6,11.075,7.7,370.0,272.0,237.0,404.0,813.0,1800.0,667.0,459.0,16.0,15.0,11.0,17.0,16.0,16.0,17.0,15.0,-0.3863395592762719,0.006790366344910539,-0.0938746394045486,-0.20562150112448513,-0.5446882616095046,-0.42573066689325034,-0.3212556560989995,-0.1788354394355464,-0.2930494212827533,-0.2608501134814683,-0.15399063238557478,-0.28738965518898657,-0.3317668839566851,-0.3064235644028434,-0.23709258520279994,-0.3032797337071819,-0.635990274433099,-0.41975375213308314,-0.5711687142923451,-0.5738344805266035,-0.22206152400872048,-0.1562391792359327,-0.07410752413753713,-0.07327166214990465,-0.446753790016098,-0.47849615795600176,-0.3121933052386856,-0.37124957305911516,-0.3276764360919651,-0.12931767472235126,-0.28641022501950913,-0.290347357735476,3
8.575,4.2,6.25,12.3,15.5,36.8,13.175,9.9,518.0,278.0,338.0,742.0,932.0,2016.0,888.0,690.0,16.0,14.0,14.0,16.0,17.0,12.0,18.0,18.0,-0.07675399615976633,-0.15716525842350676,0.2688860120268317,-0.21401823062484074,-0.7050755649912688,-0.6491036110478151,-0.38441927248701635,-0.026894799510247588,-0.20425555837726064,-0.41459307494812137,-0.06250547573060221,-0.20073593868296935,-0.3051115072184473,-0.4398434884297322,-0.1197245948721956,-0.1985786284674737,-0.6829953851165184,-0.5923416255952207,-0.283236870032592,-0.16708105168598783,-0.12142349477867208,-0.09062616968604759,-0.3583253560122276,-0.07445745034606639,-0.4799183511632212,-0.4450983892579079,-0.06820112636995337,-0.295538593612531,-0.6295335600561243,-0.5138517413691062,-0.37277174489382087,-0.445750466440101,3
10.975,6.6,6.35,14.9,21.025,38.975,17.625,13.3,792.0,454.0,344.0,853.0,1332.0,2448.0,1245.0,845.0,22.0,18.0,15.0,15.0,18.0,19.0,19.0,16.0,-0.32529836084181446,-0.16386064172415898,0.28131625344816136,-0.2339867381329101,-0.39299854395666706,0.021492303423591604,-0.015056797627567746,0.0008129387508836196,-0.15684033619360135,-0.2675763503484098,-0.03482782989282724,-0.056003242144688666,-0.16407549500382562,-0.3002739368717125,-0.06456390326698655,-0.2515210410882437,-0.6031424574012882,-0.613032505060037,-0.3569109108153666,-0.28073627848047655,-0.4946267388452689,-0.3789831886782252,-0.36396307442250014,-0.004629548730014423,-0.5580081941166273,-0.5286165824739895,-0.12576620010899958,-0.26310900934116777,-0.273800661400728,0.034444915278861225,-0.19139250179391082,-0.4231096038405319,3
11.725,11.125,5.95,12.6,16.9,40.075,14.075,16.725,748.0,741.0,335.0,711.0,1174.0,2643.0,866.0,1140.0,21.0,17.0,12.0,15.0,18.0,20.0,16.0,21.0,-0.3811076133280207,-0.23254354604346397,-0.2817235040712203,-0.10451040064641529,-0.49127423778388807,-0.3914049006601934,-0.24076662080621705,-0.26153719378342793,-0.18699583029407715,-0.30397286299144327,-0.3750338293841297,-0.09138296651735853,-0.2595886621999814,-0.2787542272190365,-0.4225617573079942,-0.12620242255515904,-0.48971689187164974,-0.2867191470132832,-0.2555189965423465,-0.24446738139382299,-0.42377148777705886,-0.3137049509118247,-0.09158348090137644,-0.3122806057371583,-0.1573847149251962,-0.18569995912566756,-0.22462832637184904,-0.1321261148597838,-0.4126521376216722,-0.014991184686371667,-0.3120943515489007,-0.4008517800145979,3
15.55,10.875,4.8,11.175,15.975,32.575,13.3,15.0,897.0,654.0,286.0,758.0,1039.0,2167.0,922.0,922.0,16.0,16.0,18.0,21.0,22.0,19.0,19.0,18.0,-0.41694796240228654,-0.4131238002736222,-0.40817276524072377,-0.4223969934771114,-0.30820027752661844,-0.4256564323910262,0.11527510157010715,-0.2606425299319823,-0.31298251178741693,-0.27369134087664565,-0.40793236968738644,-0.2744993653199302,-0.48824653645213917,-0.13420169735397622,-0.1608139068205066,-0.23036991323530467,-0.42038300220284075,-0.11906096418369799,-0.36062051902818315,-0.17552986737961698,-0.3894938607385069,0.07308558388141778,-0.13046626634066252,-0.035553679998194976,-0.3239847462908702,-0.10119402600993466,-0.18581166973247334,-0.33834883532921617,-0.173855430063976,-0.45100744057836245,-0.16388712663485192,-0.20630071521606483,3
14.675,9.425,4.35,13.625,16.675,38.65,12.6,15.525,905.0,631.0,281.0,925.0,1192.0,2170.0,834.0,903.0,15.0,20.0,13.0,19.0,20.0,15.0,15.0,16.0,-0.3059893376534828,-0.21939274905426093,0.002022268207864355,-0.21448534758984913,-0.6788719808577937,-0.42069941297390107,0.13363800819987745,-0.05734181263919642,-0.19081107144303636,-0.11348149599106264,-0.1683953216276076,-0.37829173519861875,-0.46446330513731615,-0.3062007686497664,-0.3045739834992219,-0.3683665374422708,-0.8253505361460185,-0.44808083222682243,-0.2823362104559799,-0.19740112188619724,-0.3300478137396166,-0.4987533451804118,-0.22093045645412795,-0.26002246042911464,-0.4149623356910928,-0.12212417241696787,-0.13837018063926382,-0.3500357740958323,-0.11590710426576287,-0.2389245483099015,-0.2205318772573272,-0.4060996973156511,3
12.975,8.15,4.875,13.4,14.25,41.725,16.175,9.425,898.0,593.0,303.0,823.0,950.0,2717.0,1082.0,589.0,21.0,17.0,18.0,22.0,19.0,17.0,17.0,22.0,-0.33843725242487255,0.05092132650044512,0.19487106929079093,0.03800321184068248,-0.8471749095644605,-0.4658462364758593,-0.248374834925018,-0.27369237350016,-0.32398588778820814,-0.046312498297700025,-0.23727125251605774,-0.08972807827029057,-0.4366843429126846,-0.3114760012210595,-0.40468641946806944,-0.360266944672,-0.4013899173577149,-0.09873738628243711,0.08990432934174368,-0.23594436172833577,-0.44619501933239347,-0.23218743955019325,0.04865994104709056,-0.17534619007557561,-0.4687094106709357,-0.11406316461372137,-0.13667833541106003,0.008740923388987302,-0.35544946830002705,-0.1332839567576635,-0.06854774424068269,0.13344663402299514,3
5.5,3.45,3.4,8.625,14.6,37.425,11.95,8.3,319.0,175.0,216.0,554.0,1004.0,2704.0,710.0,435.0,14.0,15.0,12.0,16.0,20.0,20.0,18.0,15.0,-0.14798496182783777,-0.16548810270384154,0.18530504257737057,0.0657630366010737,0.018062042161515534,-0.20307310963549752,-0.3502841771363196,-0.2412285237906021,-0.3052579385585444,-0.162093209187717,-0.25551842070431857,-0.19855281573716155,-0.4715070326189356,-0.24517657577095112,-0.3087472569698305,-0.5241287951442368,-0.9394071242786928,-0.7116916764259111,-0.44629995838529257,-0.22706841020451254,-0.8977788367116922,-0.7542120402170743,-0.456955424482832,-0.3189496104308106,-0.2927693392465536,-0.2395057611188257,-0.21752151001238867,-0.06773247644462267,-0.02615792951565901,-0.21345026219590832,-0.06714109172328123,0.015575945549847394,3
6.725,4.125,3.975,9.375,16.1,34.0,11.4,8.575,421.0,257.0,219.0,566.0,1139.0,2310.0,700.0,557.0,15.0,19.0,11.0,20.0,24.0,16.0,17.0,20.0,-0.1775831699333372,-0.01938097626505646,0.03981481064773866,-0.23877722896644504,-0.22526827160529023,0.03692458854486242,-0.32144657698153867,-0.12455619943335378,-0.23636714626819313,-0.623580673418198,-0.30358599963447636,-0.37181190695690225,-0.23963634607808784,-0.5627539722313168,-0.25207257123468624,-0.5072918690695561,-0.6130391879917944,-0.2000880805275182,-0.1633973488604756,-0.29856691692675535,-0.27509805981474483,-0.11624232882315635,-0.006748727301864615,-0.4067304000638136,-0.2942993577882424,0.018096546075147726,0.016238228245279592,-0.2348672752845395,-0.3241482517776443,0.00951583860273482,-0.26342896900568824,-0.043125457030155454,3
14.375,8.75,6.6,17.2,13.25,28.55,13.525,13.55,989.0,532.0,360.0,1043.0,914.0,1868.0,863.0,913.0,21.0,14.0,15.0,18.0,19.0,16.0,19.0,20.0,-0.6578090932720695,-0.12564752147757305,0.16283176163684948,0.26033529702925734,-0.5775028649689453,-0.5154942051918556,-0.3580890826965192,-0.569463495817001,-0.46786390775883296,-0.40183090420495465,-0.46820872526567364,-0.3855868881447786,-0.5656656818220716,-0.40115988115379997,-0.5330778776580437,-0.47082208996926417,-0.6662877960801389,-0.5317636382324807,-0.1730006264468123,-0.21784344434864747,-0.21692373349620278,-0.34283250652820757,-0.09708505646673961,-0.48372780821451683,-0.5369872991596988,-0.42203043403100365,-0.3694397322668429,-0.43824057365083,-0.5319269818063123,-0.24097414514692048,0.08473975411728299,-0.13034609176178721,3
29.3,19.425,5.775,19.7,17.525,30.15,14.425,15.15,2127.0,1339.0,372.0,1289.0,1156.0,1946.0,1022.0,921.0,19.0,20.0,15.0,19.0,16.0,20.0,22.0,17.0,-0.7967739071950755,-0.4315710358077928,-0.4003501141953536,-0.4499640156562984,-0.42037923095241525,-0.05522562736757752,0.2149100862813191,-0.21665041646575883,-0.4788603568658114,-0.26731552302114797,-0.3531136756866367,-0.4372020691944225,-0.48570166708015766,-0.2101514903453109,-0.43560622249883757,-0.5621743004303689,-0.6303040847559374,-0.338541832151112,-0.31583538836521685,-0.3945790333137774,-0.2949135142742065,-0.049105879742122646,-0.04132195651192747,-0.02517564667512827,-0.555130443331857,-0.2564780818425983,-0.2832013416355735,-0.03295432948133224,-0.41620144959555,-0.24655427586899112,-0.2573155434744043,-0.1269848791134363,3
16.3,8.8,4.9,15.45,21.325,26.525,10.325,14.025,1046.0,644.0,266.0,964.0,1428.0,1792.0,656.0,772.0,14.0,20.0,13.0,16.0,19.0,15.0,15.0,15.0,-0.2714263673447063,-0.2775301188968692,-0.20139919538344012,-0.5695236659060197,-0.61985101185193,0.004827773266678256,-0.23290350052177627,-0.4331795933203358,-0.08924413572779817,-0.32222938159339415,-0.23299488542864058,-0.2705075419829663,-0.20495832575840156,-0.4296227951811382,-0.18701457509849187,-0.4693831466819056,-0.6773897084476089,-0.3540214303980628,-0.19005401290338814,-0.10749207455178106,-0.2693487526000154,0.045695620854103704,-0.25155427302202676,-0.06360136975056294,-0.3014884918639149,-0.341483466705625,-0.04355155369429996,-0.016144759022580935,-0.4595189944702783,-0.38912519549850927,-0.5393877524441539,-0.39778384927914173,3
15.275,5.8,4.975,12.8,14.225,25.3,8.675,12.1,957.0,359.0,292.0,890.0,918.0,1413.0,555.0,839.0,14.0,16.0,16.0,19.0,18.0,16.0,15.0,23.0,-0.3817422642575214,-0.4110230944241971,-0.2983590019944052,-0.3904391515592271,-0.33068182325335754,-0.2191191642507015,-0.11692295971414422,-0.3282007832935072,-0.33272624666519596,-0.2054676533611383,-0.39436565900568904,-0.20539560748628372,-0.538120478988075,-0.3530346749693866,-0.2991246444706134,-0.20329398621357037,-0.4717259790404864,-0.2475351214206096,-0.19346415873511602,-0.25872836094679624,-0.0009128367276310597,-0.01814621727351216,-0.3889505801274938,-0.016534648991341137,-0.2594163901385751,-0.16022225497484419,-0.12207066966614732,0.16232092741048582,-0.5381483938451005,-0.11875417305159908,-0.22406089527435197,-0.22666584570931608,3
11.65,5.375,5.05,12.75,15.775,25.15,11.825,11.85,712.0,327.0,307.0,907.0,1086.0,1551.0,789.0,830.0,15.0,17.0,18.0,20.0,21.0,17.0,20.0,22.0,-0.4084885394452176,-0.4474143045434753,-0.27842104349038,-0.28273407291663316,-0.3565058067080456,-0.06595359485606897,-0.16996793301154375,-0.05393697141296045,-0.4078412783470716,-0.3824691901467808,-0.2802312779623027,-0.4839261035791061,-0.37570978212196204,-0.4568199208845075,-0.21038993564798814,-0.5753821946472628,-0.7542409316753789,-0.5781741811731544,-0.28246730003540027,-0.18777173279065237,-0.16775654678369048,-0.3111867603572976,0.06828897977422925,0.020381601324030947,-0.6178532824815103,-0.0869510519531852,-0.1489748297354305,-0.13170623086974698,-0.6946622198074581,-0.5814677437091248,-0.4959371913973843,-0.3627368333622256,3
9.225,4.7,4.375,13.75,16.0,30.65,10.7,13.45,562.0,290.0,280.0,938.0,1085.0,1929.0,736.0,839.0,18.0,18.0,21.0,21.0,21.0,18.0,19.0,15.0,-0.264034137655385,-0.2830647979982778,-0.15755463515965043,-0.42374731622330036,-0.4367558992401327,-0.31629705293143584,-0.2745434080999454,0.041471453691845635,-0.4230204683365892,-0.07483566357455383,-0.004180839189277437,-0.16562553099529786,-0.49722020786612847,-0.08514533414583692,-0.04571327055530757,-0.1709601752688413,-0.6821076030349705,-0.6398016467410705,-0.42360125087385164,-0.36427022325890124,-0.41071575025437923,-0.2688659154678789,-0.13335740209048158,-0.19172400579833215,-0.5025460379394989,-0.15994422709446549,0.14328862683656768,-0.02227142898014304,-0.27576795970461165,-0.4283582931180932,-0.2235477646107482,-0.37026821476232785,3
10.55,5.05,5.825,18.95,19.025,35.55,10.0,15.6,698.0,327.0,393.0,1348.0,1315.0,2291.0,654.0,931.0,22.0,16.0,17.0,23.0,23.0,23.0,22.0,18.0,-0.21881188905020466,-0.021411976222390338,0.030053774318599312,-0.35173094509456854,-0.6847338614045289,-0.35013257023058414,-0.23778725029084194,-0.16463054504715557,-0.5900982103626545,-0.3996150688284652,-0.2065149438046012,-0.2523509763174552,-0.852468056082377,-0.6062138025781831,-0.359787080128184,-0.2444060202720411,-0.6551649290448858,-0.33715429375648676,-0.07632943323904981,-0.20632360915668457,-0.4773684657109718,-0.42072261130693767,-0.07550628098910954,-0.26735116340488907,-0.15405897195316953,0.04162870266863925,0.2525265039720843,-0.2895755076913926,-0.3440981602728386,-0.4518893300388227,-0.3259620563524974,-0.4599077241872245,3
11.3,6.425,4.55,12.45,16.075,32.125,13.225,15.55,708.0,349.0,279.0,752.0,1018.0,1997.0,853.0,1045.0,20.0,16.0,14.0,12.0,16.0,16.0,19.0,18.0,-0.3141653430869522,-0.14352478082975975,-0.380309439317617,-0.20724165189095156,-0.24536421016959023,-0.250080964353819,-0.4462590731478994,-0.16314350597955948,-0.26997740759548544,-0.19619247106645887,-0.20973360156541726,-0.3386728378797063,-0.48565515714881724,-0.4145300883832334,-0.25254467440617867,-0.28792058781186763,-0.5012018400982178,-0.3657396272192786,-0.22120423293625266,-0.20479072734263526,-0.31238754056881496,-0.27609059871363595,-0.38345800646148104,-0.16255317453871673,-0.5680229318975887,-0.3587375259718179,-0.10208352657505212,-0.16340681992170436,-0.48826084088923916,-0.09580498269227282,0.0033060759570894575,-0.1920701171823018,3
16.8,6.175,4.425,12.725,11.75,24.175,13.2,18.1,1052.0,384.0,259.0,770.0,834.0,1413.0,896.0,1223.0,19.0,23.0,14.0,17.0,21.0,16.0,22.0,17.0,-0.582890384951642,-0.46917612000776426,-0.38524715255938524,-0.2847280414800216,-0.41417927898860774,-0.29099519599952284,-0.30687944391626637,-0.3784636899058446,-0.19690539153062586,-0.19354832896868915,-0.2247764655781888,-0.21210472668022154,-0.44793154562770837,-0.3675394168391488,-0.2994054729622453,-0.4131711726138414,-0.5547923351565335,-0.34087438982161394,-0.38009057493518583,-0.23725849324783732,-0.1640202293439254,-0.3614704650490764,-0.3223695559583136,-0.26725535720003146,-0.47858159190187577,0.0809773104158898,-0.3794171919803028,-0.39423814058858747,-0.6490413796142316,-0.35838452580833996,-0.24661253499141744,-0.2842274481068486,3
10.675,5.925,4.125,11.2,17.825,27.55,12.65,12.575,602.0,367.0,242.0,720.0,1250.0,1897.0,762.0,756.0,16.0,16.0,14.0,15.0,19.0,18.0,15.0,14.0,-0.4517917102288479,-0.3499498163440917,-0.4598427658916306,-0.26166026490363525,-0.5933959094403782,-0.394748717683887,-0.25937096162314055,-0.12116360085587134,-0.5804624336647196,-0.7415321954942123,-0.41567668706207056,-0.32520037205055263,-0.6924469675819177,-0.5764163106877728,-0.47126771221246944,-0.2801205626588065,-0.6681278761349401,-0.3845443013415969,-0.5631345409103166,-0.4203854668771914,-0.4966654205425808,-0.4463109479138889,-0.2986960836737146,-0.4620172547774708,-0.5306580448916314,-0.20978611548667206,-0.2966474019428621,-0.24085559003563695,-0.39603400040835757,-0.4080255566178591,-0.20295238228469803,-0.11067995338892758,3
12.05,5.875,4.825,11.825,18.9,21.55,13.275,14.4,681.0,357.0,286.0,809.0,1316.0,1387.0,896.0,888.0,13.0,19.0,16.0,21.0,18.0,14.0,20.0,17.0,-0.5501252837176275,-0.45885306422931454,-0.4245111234721412,-0.255317413735594,-0.5109899610682818,-0.5366008214536571,-0.3391727365046242,-0.4715334750634453,-0.4429769489665984,-0.2854428185594058,-0.45503093649644294,-0.3661887521633753,-0.5476824708445156,-0.4216808595175696,-0.44566893480896574,-0.249498128618306,-0.7968383389166199,-0.42273015462431096,-0.5993665446070908,-0.38531532817683656,-0.35793574900688513,-0.05368419583477899,-0.03909702047891067,-0.2293078845463995,-0.5808197862338168,-0.19780077707531785,-0.3881089734627814,-0.5260226114811137,-0.5099687039673458,-0.5703308775203504,-0.4162979376829787,-0.5485556714957569,3
13.675,5.625,5.075,11.7,16.8,22.95,11.125,16.45,723.0,330.0,269.0,794.0,1080.0,1376.0,698.0,923.0,13.0,12.0,14.0,17.0,19.0,19.0,19.0,15.0,-0.32090430304459905,-0.5197262560588027,-0.2669893816563653,-0.3342444741895609,-0.5458409186633322,-0.7400326753225568,-0.5622150929714019,-0.7799374814949326,-0.07834002487771767,-0.2362520057646621,0.017340616961531864,-0.2828166700360931,-0.4304913886709048,-0.2562460126168631,-0.15826491442583948,-0.14437271004097468,-0.6550849723093564,-0.1935687522831145,0.015603337657418236,0.02024002610527301,-0.18608197089795503,-0.293010120478981,-0.08963032740298008,-0.3510164459086026,-0.4742387371202083,-0.06996497353894535,-0.139532774460494,-0.07562602013460369,-0.30654720698345417,-0.01722653125812,0.1259496634091363,0.05482696570574393,3
13.85,5.525,5.45,14.125,18.125,31.775,10.4,11.875,952.0,377.0,303.0,873.0,1283.0,2098.0,675.0,605.0,19.0,19.0,17.0,19.0,20.0,20.0,18.0,14.0,-0.40641643175697306,-0.19278084053019162,0.14878163121661092,-0.20263401145505697,-0.7155785212253688,-0.46394413718526756,-0.33186340414423837,-0.3335302601991914,-0.12302125173679528,-0.11786700926676602,-0.22758372992280726,-0.11945599890853688,-0.3501234030984007,-0.19388918215673348,-0.3226161611116747,-0.27659690039900153,-0.5755234797499201,-0.18253620074802102,-0.3334118702777062,-0.4043161055365075,-0.44614816429657683,-0.25254288936787805,-0.07015745372782692,-0.2679978351136015,-0.3848098445496814,0.02315980174503154,0.09801822641821255,-0.028000284329688766,0.013859101486110189,0.05129874204354813,-0.13649891868583486,-0.1621852771870034,3
12.675,7.15,4.85,11.425,18.15,37.775,13.3,11.525,900.0,448.0,284.0,661.0,1352.0,2556.0,819.0,730.0,20.0,16.0,13.0,19.0,21.0,16.0,14.0,16.0,-0.44205252067062395,-0.105908342994263,-0.02108550936546958,-0.13145362328784,-0.5595485871420566,-0.4093502470177887,-0.293219239420998,-0.36762651740706287,-0.3115943164998677,-0.24010889554361714,-0.41420021858931344,-0.4462107778757595,-0.38063650987246717,-0.23624203682954337,-0.4589494896367756,-0.45584046481958,-0.5999547553192278,0.051947920623723866,-0.05905465240558976,-0.16407496137643662,-0.4459233311526884,0.06292614754688945,-0.1597736812514893,-0.22263578863438938,-0.4381530584700903,-0.03135699096251072,-0.5290452353048998,-0.4711038155561822,-0.3432652755178126,-0.38050185547662985,-0.15224759842024727,-0.2818211516198888,3
12.05,4.825,4.075,10.725,20.4,36.95,16.325,13.55,782.0,308.0,250.0,679.0,1388.0,2322.0,957.0,878.0,18.0,17.0,17.0,18.0,18.0,17.0,19.0,14.0,-0.6021851878423338,-0.3443180202874951,-0.47012519737688624,-0.48056642284677936,-0.4947657851616696,-0.1531680116386313,-0.12056701959125889,0.13482354496053578,-0.31087811184929864,-0.14287948026407363,-0.16988573067587925,-0.16816360235504996,-0.36060046287469344,-0.35019660561557425,-0.3471213353688144,-0.44624333754697576,-0.6333179557715382,-0.24810069841136428,-0.4835198206623583,-0.4181817889070694,-0.3751154125503665,-0.19264097468180394,-0.2783414786720101,-0.2240952319960695,-0.2931366700923151,-0.585471700521199,-0.19298281275280812,-0.33680345493815755,-0.4008019823913337,-0.1578391114704652,-0.39401879485309743,-0.233267121077087,3
17.15,5.25,4.6,10.525,18.05,30.325,13.25,13.575,1054.0,307.0,268.0,614.0,1197.0,1903.0,886.0,814.0,20.0,16.0,16.0,15.0,23.0,19.0,16.0,19.0,-0.45527355027553446,-0.21948581319003152,-0.17110433453619514,-0.2541808437011682,-0.3341222728911053,-0.4285505415506968,-0.322694923297252,-0.07176095926741714,-0.22724891776378237,-0.3003484533811358,-0.2596492679856921,-0.023996809279058756,-0.26990837546485846,-0.2562742308525032,-0.4194060828105749,-0.09590643989504885,-0.5375579253401581,-0.1352104106235462,-0.40716448989096715,-0.3832129439748316,-0.4257608434203525,-0.33691502471621326,-0.3550918597020573,-0.23844740559713826,-0.49032984561748816,-0.5268197874985192,-0.20748247590570237,-0.3906634628459969,-0.30645241915521154,-0.13671926195395204,-0.24616657156822763,-0.14013581645644632,3
17.325,6.05,4.275,11.225,18.35,24.85,14.375,13.275,1157.0,320.0,232.0,731.0,1280.0,1414.0,930.0,803.0,17.0,13.0,16.0,18.0,15.0,15.0,17.0,18.0,-0.5812180562832008,-0.20031790114961495,-0.2869359706647057,-0.30557559328294065,-0.12579042971281518,-0.4268009358748669,-0.06092368752927845,-0.2504042875913427,-0.2757359450920059,-0.5156548054090505,-0.3651296781084189,-0.12013407530179562,-0.5204168533917908,-0.3814782135045411,-0.3006403276427228,-0.14632555634744024,-0.5530967609169603,-0.19132927425748142,-0.280079381044988,-0.103212375941051,-0.11585410956333557,0.1457807777056477,0.07023205246623491,-0.17946852339176386,-0.5007650407727128,-0.3576334321798032,-0.2612078854533887,-0.3143765341142811,-0.23612625624559797,-0.11896636866599795,0.08376736452690496,-0.15267503660078677,3
15.375,5.65,4.525,12.9,11.275,18.1,12.95,12.0,1066.0,385.0,272.0,790.0,690.0,1153.0,887.0,665.0,18.0,21.0,18.0,16.0,17.0,15.0,16.0,11.0,-0.6221346877546814,-0.267242302177695,-0.22621402300301446,-0.40265660261071345,-0.7597031685609943,-0.447582646052611,-0.3421680197927441,-0.2904777721471842,-0.43161562270798004,-0.20139507163522588,-0.18982295618902992,-0.34367784977520766,-0.6013806694942648,-0.4465842460189912,-0.43756427252638763,-0.5030516858042949,-0.16966701217269586,-0.41041409979556437,0.11472612362570304,-0.1136505240283258,-0.3344332068840482,-0.21811342773140494,-0.2081692829324463,-0.26511032295480236,-0.48876605571919024,0.033170155120178194,-0.2319564404795998,-0.31542373710306537,-0.20541374898811882,-0.08304906427485974,-0.3381216023454095,-0.24464492919395964,3
12.725,5.0,4.6,12.175,10.225,20.525,8.775,13.825,834.0,306.0,304.0,774.0,679.0,1274.0,500.0,898.0,19.0,16.0,18.0,20.0,21.0,19.0,11.0,17.0,-0.3135506852915324,-0.18413971710132965,0.10621357532366418,-0.056762332122295735,-0.2311052754798376,-0.23341533859645477,0.06450099637761267,-0.1866990498491063,-0.5306655723710467,-0.21952108565862538,-0.04604500840423607,-0.21138130839433752,-0.4937635560589035,-0.26372919352146246,-0.10107970951769228,-0.23834602155813744,-0.5226035668924536,-0.24847018145147692,0.12451461578857859,0.10782765775524356,-0.17167100060413393,-0.003766285915310922,-0.2713584369974921,-0.37646532249572423,-0.18744670409573655,-0.10661537753434235,-0.368666736405093,-0.2911715155534756,-0.5393806284692078,-0.3135301513194651,-0.3229855545027017,-0.34092523837954536,3
14.425,4.425,3.65,9.6,11.525,25.825,13.1,9.35,920.0,266.0,213.0,593.0,787.0,1667.0,813.0,568.0,16.0,18.0,14.0,14.0,16.0,19.0,15.0,15.0,-0.2718837161500463,-0.10014042379373264,-0.27781700547215715,-0.06360097011096669,-0.3720172710668783,-0.2412819406604388,-0.15369605083764548,-0.11450824027195575,-0.16099320610067092,-0.33578577905265655,-0.1474549472145776,-0.5225615020490376,-0.37455264105229186,-0.39149861507433825,-0.41813411682168433,-0.5055425807945284,-0.3831099356381423,-0.21458812871817498,-0.2325977772740195,-0.2608831680841695,-0.27594914759434835,0.2800618544418967,-0.13762058785786466,-0.44359258907503885,-0.41420311889949635,-0.14622355140341856,-0.02170567002403176,-0.10280262754577855,-0.2852380855080601,-0.4992192184693387,-0.18487149070480652,-0.03076738462062071,3
13.2,3.725,4.575,10.45,17.4,27.975,11.55,9.95,809.0,253.0,247.0,688.0,1135.0,1639.0,753.0,662.0,15.0,15.0,14.0,18.0,18.0,14.0,18.0,18.0,-0.4033171070025838,-0.24427608406719678,-0.33650157177864104,-0.31984080972891493,-0.29193576795596743,0.12984173438146274,-0.37270365062020744,-0.21943230870866728,-0.08067199309606751,-0.20082790236963136,-0.029254774764911565,-0.29169007278799625,-0.32630252910186647,-0.08719176661962164,-0.11949185380390204,-0.38983414182228965,-0.5453462470420376,-0.6004345006853965,-0.22693392612279606,-0.34347826331977604,-0.3697301916099623,-0.29353348325378126,-0.3086447412629313,0.0031985715218416345,-0.285859727201856,-0.08843266165832923,-0.19426685486915873,-0.14673874611787974,-0.40612116310337315,-0.19022927763283967,-0.27503857735474435,-0.35555653469094495,3
14.625,4.8,3.175,7.0,17.775,24.7,10.5,12.2,1022.0,335.0,186.0,451.0,1210.0,1491.0,641.0,744.0,17.0,19.0,15.0,18.0,22.0,15.0,14.0,16.0,-0.7070677606662803,-0.08048848137842088,0.29691326408546515,0.16359451406735243,-0.5591089927493026,-0.20023325692648195,-0.05808718557557096,-0.001048700787242329,-0.19496323878942354,-0.21488263925311687,-0.22791218873381816,-0.21833976735980756,-0.4979514815857216,-0.3127988193019619,-0.1666857536500548,-0.1475655720764645,-0.6888735603035566,-0.2510301505788508,-0.3905622844890527,-0.3244168963179506,-0.3838948125281963,-0.2521999928420756,-0.28057195590178574,-0.18979040923004967,-0.3215820982692538,-0.41283691803162587,-0.3701452480484468,-0.3015958073960965,-0.3984505519299761,-0.26757135007721516,-0.38184838612242666,-0.21412741587216594,3
11.55,4.575,3.6,10.025,13.075,19.4,10.825,17.25,684.0,285.0,223.0,608.0,872.0,1101.0,678.0,1009.0,18.0,15.0,14.0,16.0,19.0,17.0,16.0,15.0,-0.3046800936235699,-0.486098383298579,-0.03731632355584598,0.013371989446691553,-0.2819525516111318,-0.10483444399243805,-0.13253413025715424,-0.05221027355723677,-0.1531282804733635,-0.18665149650698024,-0.17043662316241265,-0.32660502425972804,-0.24359642206297355,-0.12576544393684252,-0.23509442067981187,-0.38115064455991127,-0.4651146935717662,-0.17467664109878306,-0.27001809326088794,-0.004192007767915972,-0.18779547657145507,0.1306913242627694,0.030850936231755863,-0.2494169056884153,-0.30772218341420077,-0.03487630546397222,-0.28587602891958136,-0.14889971232105936,-0.29833078335550767,-0.28360962984391114,0.0050428083245812995,-0.02329667876655533,3
13.075,5.125,4.25,11.275,14.25,27.525,13.075,15.125,815.0,326.0,212.0,650.0,946.0,1887.0,820.0,994.0,18.0,20.0,14.0,15.0,22.0,19.0,16.0,18.0,-0.2685611785317573,0.11731031362599402,-0.0686083982683923,0.0034197394143799767,-0.2575264521405702,-0.015585574749135264,-0.03200759773571033,-0.27347807991854217,0.022930348450794138,-0.012298769692603679,-0.08463921314425692,-0.07350728112273108,-0.17892557089151176,-0.036630888591978814,0.07719415264727546,-0.35387077635790254,-0.44264766872240974,-0.07728471464032523,0.03766558212477643,-0.13986183956056214,-0.5588577375111161,-0.02333212650755563,-0.2768812526437371,-0.21392757643502877,-0.4163401353424701,-0.38380289873296036,0.10149397437606686,-0.056294185792613444,-0.4947815037299434,-0.2682281752415109,-0.05027125937092381,-0.17468002353505796,3
17.1,6.925,4.75,13.75,12.825,30.275,15.475,15.025,1110.0,478.0,288.0,833.0,827.0,1917.0,1002.0,1032.0,18.0,22.0,20.0,16.0,15.0,13.0,16.0,14.0,-0.40393226436150037,-0.046197532979490044,-5.9138482364345856e-05,0.051444222855826706,-0.32244486850173804,0.22166094274583362,-0.032746456226087704,-0.41194327631161737,-0.4546965565812747,-0.2973908728996832,-0.16354710966671449,-0.11902768098190492,-0.4387180589571499,-0.17157584716232244,-0.16826791141887085,-0.14062395710915043,-0.3972362911553623,-0.3087333448778732,-0.37369011722297324,0.0452150290785304,-0.9222691890579839,-0.8225252301607692,-0.8665298424101003,-0.540333335936257,-0.4133195340255867,-0.26877228463167074,0.0031196446692627108,-0.18661664439655007,-0.30809545559731344,-0.3594232286942815,-0.11447896954519889,-0.18010199797157556,3
21.75,8.525,4.525,12.7,16.575,28.75,11.55,13.275,1531.0,478.0,236.0,670.0,1085.0,1845.0,688.0,842.0,17.0,16.0,10.0,14.0,19.0,20.0,18.0,15.0,-0.645864050108574,-0.27656581012552334,-0.16831163975945473,-0.08230492057051265,-0.3431870916592487,-0.2989985645786059,-0.4237552148156559,-0.2668566542377092,-0.07618197438324785,-0.5659255683585358,-0.3445445206882013,-0.2805333825493377,-0.3521145522672219,-0.5392387248532455,-0.5509185224046904,-0.4118625774791751,-0.4862310506605786,-0.3373978059194654,-0.39552347389206366,-0.3913058747299815,-0.5147470628707735,-0.34314980237703996,-0.24433829391127132,-0.25835367350939165,-0.2190643528488387,-0.5602346213801372,-0.1849439188272365,-0.5138459604856705,-0.3175139677526505,-0.627102765725679,-0.13190743167256277,-0.555797517144899,3
