0,1,2,3,4,5,6,7,8,9,10,11,12,13,14,15,16,17,18,19,20,21,22,23,24,25,26,27,28,29,30,31,32,33,34,35,36,37,38,39,40,41,42,43,44,45,46,47,48,49,50,51,52,53,54,55,Gesture
12.375,37.225,7.05,3.125,22.425,25.2,5.55,5.925,825.0,2650.0,455.0,198.0,1367.0,1652.0,358.0,411.0,20.0,24.0,18.0,20.0,16.0,20.0,15.0,21.0,-0.5024293702591829,-0.4377845005645791,-0.306961981747803,-0.3131990769257892,-0.6235456973919568,-0.10957480375959028,-0.3168129471369168,-0.39766615318304516,-0.40677240697828815,-0.26509129239366414,-0.295625665034055,-0.08115155756059718,-0.24770220661867745,-0.14663354037746312,-0.12474404007110582,0.05367536056404521,-0.2904973766638582,-0.6324262929291066,-0.10902233253878285,-0.4534806792828763,-0.3789676947529131,0.0541064541529548,0.016914424307283554,-0.09257887678586138,-0.37439905410489177,-0.09407373009525992,-0.16800248086048514,-0.2607109141762886,-0.5327352177172493,-0.2699357812249096,-0.12138308632366976,-0.1320200177757954,2
13.025,23.475,7.05,3.525,19.675,24.95,4.825,6.45,846.0,1527.0,407.0,221.0,1252.0,1540.0,294.0,444.0,17.0,18.0,12.0,16.0,22.0,15.0,15.0,17.0,-0.5947819043704718,-0.45591132675259544,-0.361542481025833,-0.22757780453222026,-0.691875592639087,-0.3949724421920001,-0.50449551302762,-0.41389425082538456,-0.11206311161574779,-0.29995470297147453,-0.016827489035834572,-0.12441068268558542,-0.33864467832361494,-0.06912137429188629,-0.18863816424781712,-0.27060043113885934,-0.30614674727220886,-0.4103491190113116,-0.11474325674879982,-0.21711166663859022,-0.13188499388691033,-0.20961586181234493,-0.09065693855354257,-0.24184094116996255,-0.4100345847126098,-0.498946097558845,-0.3670848691563185,-0.47527859818086093,-0.5502272263628086,-0.22414491684402374,-0.08488060776605222,-0.12289117164464523,2
10.65,23.725,7.55,4.625,19.725,23.9,4.6,5.825,698.0,1517.0,443.0,253.0,1288.0,1346.0,268.0,390.0,17.0,17.0,13.0,17.0,22.0,13.0,11.0,15.0,-0.48785612856565436,-0.19207369333292185,-0.2036438219434393,-0.0724881484867045,-0.21271643765443643,-0.16527838694367505,0.19097386825468934,-0.11766066958429038,-0.32367307741429263,-0.18313144160310138,-0.3869846159900208,-0.24885907016375786,-0.2881336011692158,-0.3049188484323132,-0.1118694679183537,-0.02568307677318237,-0.4659328103415506,-0.29782395838158443,-0.10711418544743496,-0.16298330734128588,-0.04683148903882037,-0.21760974307303607,-0.1083558296403403,-0.28236885695580727,-0.17601479670245018,-0.012409041202144071,-0.3333163021044524,-0.1826275074123172,-0.5003356147758251,-0.15326171369985045,-0.1298501110139201,-0.10669972198944261,2
12.95,23.625,6.35,4.575,14.675,18.65,5.125,7.175,810.0,1533.0,375.0,276.0,932.0,1131.0,292.0,478.0,16.0,20.0,13.0,19.0,15.0,20.0,15.0,20.0,-0.364982258343917,0.0358464497311656,-0.030972758477769827,-0.0434353805483015,-0.34061105416894194,-0.27914740199392113,0.029366404222398407,-0.045853076665738665,-0.12501316113525043,-0.28852900931044984,0.06932868207123387,-0.14662959249703245,-0.44785883864668563,-0.28713333157926185,-0.13684176046221172,-0.07195843478512248,-0.26375330981552325,-0.16166208891332168,0.0017620346697682556,-0.4335429448567853,-0.31653742922105005,-0.4530920219310077,-0.2852314926913558,-0.3482714235784358,-0.28604870087038803,-0.021509334194611096,-0.28382263674557257,-0.3319094900966132,-0.4200301777495082,0.023126879282737815,-0.10729784237125532,-0.2884658794417385,2
17.025,21.525,4.9,5.125,18.275,25.7,5.325,7.6,1145.0,1288.0,339.0,335.0,1225.0,1723.0,341.0,507.0,20.0,18.0,22.0,20.0,18.0,17.0,16.0,21.0,-0.6822758303736911,-0.5615574858471863,-0.1409323470374314,-0.36630426197082194,-0.2102530703654051,-0.10627095327979848,0.060384798156647115,0.09944372491996388,-0.4611833419613555,-0.4246366070664747,-0.3455441051786486,-0.19613628518740817,-0.4811247718125028,-0.2094578665082753,-0.4621529441854813,-0.4522764271575352,-0.4527221562468422,-0.2945324146283187,0.04208391085673931,-0.17244770880868598,-0.32343801370519015,-0.043153155460490464,-0.0052964767089176655,-0.2588244230988641,-0.3139149278379988,0.3338605660148981,-0.18895547166746077,-0.4787992786103422,-0.3877797970821552,-0.12064314635141449,-0.1718521961766703,-0.49930297161019466,2
17.25,37.5,6.225,4.25,12.375,22.5,5.975,7.525,1033.0,2423.0,418.0,246.0,782.0,1531.0,374.0,459.0,18.0,20.0,19.0,15.0,11.0,20.0,17.0,17.0,-0.26225366204554384,-0.20393894145838168,-0.1849099866773196,-0.31406930396265176,-0.5845510097911077,-0.2994097665281144,-0.15946679265069727,-0.1858344207618214,-0.20105534880243733,0.20597580585935546,-0.1415488007562634,-0.10143882114597969,-0.3100128788299136,-0.5461019573180672,-0.24147698965692047,-0.3742938052491677,-0.28668275705251356,-0.035061130647185995,0.059989382294356006,-0.12983323566891325,-0.3752014994034466,0.12688361142798826,-0.03856374083860719,-0.10157686055315664,-0.3333646072900997,-0.13121003664466985,-0.24537400094827855,0.004817399605874127,-0.3832565524945895,-0.15038896847121264,-0.09222840512941526,-0.36879188552772785,2
13.875,30.325,7.45,4.75,15.525,19.425,4.725,8.325,905.0,1895.0,483.0,280.0,1090.0,1194.0,298.0,562.0,17.0,14.0,17.0,19.0,17.0,17.0,18.0,18.0,-0.4178002444662347,-0.2558734326377943,-0.2248454236611398,-0.2428807306349496,-0.4658815980816717,-0.41771081923292447,-0.4535292189737945,-0.2166942957090402,-0.3762863948121742,-0.24347380771663543,-0.12756541368653673,-0.34974463766794484,-0.3926179493415952,-0.3819446888124669,-0.21384835026146992,-0.11769748734257247,-0.4113481299879051,-0.3252493274375266,0.021654491985654,-0.14476923877408013,-0.24062035308108884,-0.22507457770936778,-0.20237801974951658,-0.23554831822979777,-0.34455130510271853,-0.4505105140022783,-0.28682364025605983,-0.3616768748543657,-0.6375392377750608,-0.37396578573219796,-0.13191187598699583,-0.19761902282641894,2
12.2,20.925,6.975,4.9,13.275,20.4,5.025,5.525,781.0,1306.0,419.0,289.0,909.0,1441.0,309.0,329.0,17.0,16.0,14.0,16.0,19.0,21.0,17.0,16.0,-0.3792238745931441,-0.24107276671582803,0.06541179748118474,0.13802035073546828,-0.4322374871583072,-0.3501299734930891,-0.36399348755457095,-0.37143854962639977,-0.4497057525767997,-0.5067065543106207,-0.4044797023893224,-0.5843839331548081,-0.41282511108438474,-0.2885268853825767,-0.3699660599287378,-0.25811792704876174,-0.6162860278367693,-0.15354640285035193,-0.10098204399924259,0.03279040608608218,-0.5732705482959835,-0.19890146260356928,-0.2730708389246982,-0.23247462568564473,-0.4357096995002812,-0.27015910297563434,-0.4928667570598299,-0.5149044478349585,-0.16865131722186733,-0.18930412235591892,-0.06996399401217114,-0.3676706150999401,2
12.2,23.45,7.15,4.4,15.4,22.2,5.325,6.225,713.0,1562.0,461.0,290.0,1001.0,1398.0,341.0,329.0,18.0,15.0,18.0,16.0,14.0,16.0,17.0,17.0,-0.4108234206922433,-0.3961987584772122,-0.12723320004390917,-0.2662615006775959,-0.4051001409110635,-0.16348588137977949,-0.2460123105445701,-0.2931670441120023,-0.2486882940815717,-0.15831771842305967,0.09876360594756702,-0.19088447729658325,-0.7054901077271563,-0.7070241461205127,-0.37175875698118976,-0.25095279607436427,-0.2583135589007869,-0.34627952375760673,0.014501709980638726,-0.14664036623765114,-0.3552344618833931,-0.21513906421108636,-0.18111496446203632,-0.1811805891133371,-0.4153837292650794,-0.3508258235831976,-0.25675831364496493,-0.5063414233215954,-0.35103379763805015,-0.41009782796181454,-0.2989455186921875,-0.2633457251378074,2
11.25,19.85,6.65,3.25,17.45,19.75,4.6,8.425,755.0,1297.0,470.0,224.0,1220.0,1143.0,308.0,560.0,17.0,17.0,20.0,20.0,20.0,16.0,17.0,18.0,-0.5820772245971821,-0.3464404766669641,-0.17753006480462133,-0.14963410883710754,-0.4713038100410414,-0.26306508427657477,-0.1727113253338659,-0.34820382532382055,-0.3991231535479663,-0.10345403632113105,0.23134835732474565,-0.07017730775696497,-0.631167969342668,-0.3595139931366547,-0.47340330317595836,-0.3370530622041051,-0.6770454712342326,-0.45200412742771284,-0.3297522401597487,-0.11508076438449172,-0.15916942784039964,-0.2667376118455287,-0.1726485130268105,-0.11990357303931061,-0.495632099281114,-0.17906644284992052,-0.12261122264392538,-0.519706855673112,-0.5440466285155108,-0.4107427145645126,-0.3664965288113457,-0.34077333697982864,2
10.975,15.975,6.525,3.975,17.525,21.05,4.075,7.15,643.0,957.0,370.0,261.0,1219.0,1415.0,265.0,437.0,15.0,18.0,12.0,18.0,22.0,20.0,20.0,15.0,-0.45650185784242286,-0.3035925842642977,-0.33546634446665047,-0.3651265881785393,-0.5106583444909296,-0.43381914243482195,-0.43695933770971207,-0.4277134647167689,-0.3188260740936902,-0.5713196924460855,-0.37668651703561357,-0.2931079755201634,-0.6456769545049064,-0.3908364253096699,-0.386838140586048,-0.38595814704393305,-0.6688295090368982,-0.38621137376696324,-0.5622408520578781,-0.2952853021309339,-0.24622130381058546,-0.040652402652525656,0.02373303146706595,-0.29856096986146324,-0.520498470932242,-0.4920386639353687,-0.2367697073576426,-0.5056457250387976,-0.23722355984248322,-0.4487923390411458,-0.18167208112853775,-0.10477534956301966,2
12.075,19.425,4.9,5.675,17.225,17.375,4.725,7.425,764.0,1141.0,302.0,372.0,1101.0,1008.0,327.0,484.0,19.0,16.0,20.0,20.0,18.0,16.0,20.0,16.0,-0.4328616865038073,-0.28261673320705305,-0.018506904356497385,-0.21592364098610772,-0.26901122088023743,-0.2339415388303147,-0.3132367808584105,-0.4107626967659077,-0.311484511083868,-0.21333081974766255,-0.30869685522596035,-0.13289327130109424,-0.5613984790565838,-0.2830893961368034,-0.22314446547754657,-0.28256294676427884,-0.27770689771412327,-0.13272988806820285,0.041200109887025854,0.0013215395829597719,-0.04232095398094034,-0.19167138737839473,0.13235318788437117,-0.1599824461029248,-0.5171948583108704,-0.02409193048483675,-0.3923450536389224,-0.23980692790903127,-0.46242438536875324,0.06866463379615838,-0.09665736262378231,-0.01936078328153597,2
15.075,24.225,6.025,5.375,23.6,25.05,4.775,7.9,1073.0,1662.0,399.0,371.0,1540.0,1395.0,294.0,530.0,20.0,18.0,20.0,17.0,23.0,17.0,17.0,20.0,-0.6003127401689521,-0.5753035223910851,-0.23483612621760325,-0.21678749611140546,-0.45207171225952464,-0.3487709239919865,-0.046683885069125367,0.05485335012683223,-0.45480019088134255,-0.1637054578073151,0.03440403497869012,-0.037186041928801344,-0.554871151875421,-0.2809750320424677,-0.24107897591996116,-0.34846523470253066,-0.4390551300353508,-0.23389113336657635,-0.09798892504021131,-0.1495347795491877,-0.0518143505287002,-0.22226061758780183,-0.062375697698144376,-0.3549606589530145,-0.352037381959417,-0.2321324254163154,-0.05832225796399328,-0.15375023407672933,-0.6582134163582714,-0.42711180703022045,-0.41817392493041994,-0.04368232718688289,2
17.125,30.575,5.025,2.775,21.825,24.45,4.275,7.25,1173.0,2014.0,307.0,159.0,1266.0,1513.0,277.0,418.0,15.0,16.0,19.0,15.0,16.0,17.0,16.0,17.0,-0.9098798481155388,-0.9297029142910367,-0.5189111745865551,-0.3445234031223288,-0.5139305374258573,-0.3865965049518878,-0.20162850066069327,-0.11818862926674413,-0.38722572881451217,-0.2583994746895874,-0.171064862095646,-0.3211584042542641,-0.009218171177089026,-0.08385872080699527,0.05820395795405281,-0.18596019773916128,-0.33178974108844056,-0.266051180671269,-0.32248265894829414,-0.3525979923028184,-0.17145402466956067,-0.4328226033967906,-0.13162584707543645,-0.4930932214435603,-0.33925206724632606,-0.21082155046314005,-0.15472140266336562,0.0032571125384754304,-0.23794609252481932,0.07371826719052532,-0.13917698425460223,0.028378719387471465,2
10.225,21.3,5.275,4.075,17.0,18.65,4.275,6.55,645.0,1185.0,301.0,246.0,1172.0,1120.0,269.0,431.0,15.0,16.0,16.0,16.0,20.0,17.0,16.0,18.0,-0.23372571204822537,-0.2010733850965579,0.2461976551723254,0.00319541965428708,-0.1658838062434199,-0.15352758244647519,0.029921969186843943,0.0505671108215194,-0.12906876302900222,-0.21938213986654528,0.18589968064355483,-0.17427477509762027,-0.308937869529832,-0.5209293921837771,-0.22366475119926812,-0.5615170789140255,-0.43160723029112424,-0.2604615918087552,-0.11262026704767214,0.018067479380054017,-0.1484599115557723,-0.19590726784511397,0.08251752603757916,-0.1898856795636483,-0.3968677184006893,-0.261511729505721,-0.05891986120937003,-0.22013370951341166,-0.5434071715961846,-0.2204152477603098,-0.33264131454972556,-0.285972338944671,2
12.2,17.975,5.15,5.8,17.575,20.6,5.4,6.1,847.0,1141.0,264.0,352.0,905.0,1138.0,361.0,329.0,22.0,17.0,12.0,19.0,13.0,16.0,22.0,15.0,-0.4153581953992723,-0.21301194052676595,0.2929765825306885,0.06523835260436303,-0.35271988358032613,-0.3343608074664373,0.09654558309303636,-0.3021897892601418,0.03476838872170593,-0.23212121691032575,0.013039947632513508,-0.10457770744849862,-0.37139771350663936,-0.1368730198198991,-0.3039364089647234,-0.21540254107600376,0.17306911217987025,-0.3072682533730845,-0.053521490136512584,-0.2428030107683923,-0.24069922629009025,-0.3985224963083634,-0.24253029493389108,-0.4739267306688176,-0.37932742412000714,-0.17898083121449077,0.10599883963459338,-0.3431963468703082,-0.045411624185566386,-0.29161286996907054,-0.14440405093015293,-0.2967661291074803,2
17.975,24.85,6.025,5.225,16.1,21.15,6.1,7.725,1017.0,1459.0,383.0,335.0,793.0,1206.0,362.0,417.0,18.0,19.0,17.0,17.0,14.0,13.0,15.0,12.0,-0.24040512923479826,-0.3714679537271761,-0.15300479901206918,-0.289912069627645,-0.2621026309224886,-0.4047482396960932,-0.1445588667053482,-0.2432164513647296,-0.25530991917323576,-0.2346270253737735,-0.11002022555982059,-0.1133324930244347,-0.3117491235389368,-0.07927028901668452,-0.19718426259346242,-0.5403255247033047,0.22356695625123787,-0.3413261180183338,0.08355183488540076,-0.09508255702504115,-0.3622941648277966,-0.4182034871620187,-0.312243903789949,-0.35446016538923497,-0.22684707952859634,-0.5083326992360091,-0.13318082430441686,-0.4085050751851014,-0.028280421299925456,-0.03386262374873485,-0.1137175435579242,-0.09170458199500117,2
16.275,24.325,6.05,5.25,16.65,24.475,6.375,6.875,1147.0,1385.0,388.0,359.0,1044.0,1401.0,409.0,416.0,21.0,15.0,18.0,22.0,20.0,17.0,17.0,14.0,-0.6315678019528409,-0.48844302149573926,-0.4387997247470506,-0.24194925068229922,-0.2233690007069685,-0.3127773169013073,-0.18769830178640728,0.028042916433650807,-0.5580892576657213,-0.4545853102571433,-0.5835940301027835,-0.15224732588178136,-0.6802596167119792,-0.4787875862356931,-0.6136592234765706,-0.17465816915800655,-0.3108127186392699,-0.2908486187510967,-0.10836905793828834,-0.04383390256828738,-0.2180240021932215,-0.13753101392714484,-0.1275148066600467,-0.42117990303227465,-0.42649439250718746,-0.054326213570305294,-0.01699095296336944,-0.4057570986446552,-0.3402754305533228,-0.12961275273892822,-0.02635249901258028,-0.08188924896175705,2
14.4,23.3,5.25,5.3,16.65,23.25,4.55,7.1,935.0,1513.0,327.0,338.0,969.0,1382.0,248.0,436.0,18.0,18.0,15.0,14.0,18.0,19.0,15.0,15.0,-0.6938519945442484,-0.5900644808762113,-0.555978178131135,-0.4332209475748959,-0.5749699589753714,-0.41905994617758763,-0.328994409390477,-0.3404894100224503,-0.28115448323808173,-0.16924556527127585,-0.17034293424042035,-0.01241216538760494,-0.5499494881036796,-0.5174588904327989,-0.4091074743406785,-0.17155946012253975,-0.29817050154419145,-0.01625411529242356,-0.263598345758978,-0.24638823474408042,-0.3065476313646038,-0.05934977802385682,-0.16557373611997067,-0.3633976874299618,-0.17551648694072405,-0.27661977504192026,-0.3287353033941554,0.06041449150944094,-0.49650510656623886,-0.16437230858715848,0.053222049789575426,0.15314749722493146,2
13.25,27.025,4.95,5.35,19.95,25.1,5.75,7.9,872.0,1719.0,333.0,351.0,1369.0,1606.0,365.0,499.0,19.0,18.0,18.0,17.0,20.0,19.0,19.0,19.0,-0.4512580872751457,-0.354680764271456,-0.2028642100877855,-0.07010633886697394,-0.49935994478292617,-0.4942276904664497,-0.2649288325288271,-0.45109535916282906,-0.4197359062460752,-0.3709171569413567,-0.3435810295393084,-0.33050312846489827,-0.3057095341261222,-0.2570446398451609,0.11211297220733374,-0.05174652254536337,-0.5593198435809283,-0.09953411518435237,0.08342513587331295,0.04738438453219409,-0.4126608386261172,-0.1943566732818555,-0.3130293318019321,-0.1218452906157764,-0.32174735107725044,-0.13318187978046533,-0.08485370184436984,-0.37584015872952997,-0.4741349011101845,-0.2183803412881846,-0.0522552277244982,-0.008839541640075022,2
15.25,17.7,4.4,4.1,20.125,27.275,6.025,8.15,1025.0,1108.0,307.0,239.0,1278.0,1528.0,388.0,513.0,19.0,19.0,18.0,16.0,19.0,17.0,19.0,18.0,-0.44369095919642976,-0.15959559498255182,-0.031873820901073026,-0.12482091979064813,-0.35509296209947977,-0.0531951430287383,-0.22974321851004265,-0.09399615336412291,-0.5002721151082331,-0.3550270830549771,-0.33005969872888935,-0.08787328688818555,-0.38360106383572845,-0.22557183495522787,-0.262107215989979,-0.23595625972219528,-0.37497364599248106,-0.1172906341937485,0.18160360798651332,-0.10528082827968643,-0.06310087222856524,-0.3269204648207832,0.009639125322311965,-0.39507693517550224,-0.32668352471377543,-0.18753395883772628,0.08174641599110388,-0.059922073867122054,-0.32533778588303147,-0.24701250303406533,-0.08206995018971856,-0.3634941551919194,2
14.325,17.825,4.825,3.775,18.625,19.575,4.9,7.35,970.0,1148.0,324.0,252.0,1217.0,1219.0,330.0,456.0,21.0,19.0,19.0,17.0,18.0,18.0,18.0,15.0,-0.45630314530868715,-0.18126111937049336,-0.0509964976229633,-0.1588700678888181,-0.43970083659922826,-0.36625986095788393,-0.026578504073695754,-0.17019355682658963,-0.40702808008592745,0.032447633498481565,-0.17704031171188045,-0.3459386267555833,-0.42695805392478353,-0.3117061810867572,-0.3038987652909345,-0.21314070548697003,-0.3931889679850478,-0.30221021498972744,-0.14087672336046952,-0.06462768542945335,-0.18450234500414517,-0.1658442733313963,-0.07610257044331678,-0.25824581326537505,-0.5468808875640874,-0.3083740767103011,0.002112691708998946,-0.10204941594887189,-0.3176499076719973,-0.18041367157659152,-0.03157718310521351,-0.19640391627680182,2
14.725,22.8,6.35,6.4,19.125,22.55,4.95,9.1,1026.0,1409.0,415.0,409.0,1123.0,1298.0,333.0,604.0,21.0,14.0,18.0,18.0,16.0,17.0,17.0,16.0,-0.46963158046945985,-0.24655297454022226,-0.2627788252296045,-0.2559109530636065,-0.4861058536133791,-0.2038910149027788,-0.431784416680967,-0.3235758180098122,-0.36337127448766254,-0.37369798529394216,-0.1437378666728327,-0.3771180573034274,-0.5287408619306206,-0.2641552286083453,-0.39959486923728943,-0.3991070744874858,-0.21823940085919466,-0.08171661787127031,-0.08625122281726032,-0.20469449549792604,-0.08289804505288813,-0.25966295417828233,-0.20927812449384534,-0.32739858942331973,-0.6605476502696614,-0.35360767558542466,0.023212564696431476,-0.21206755475774564,-0.45174996342125395,-0.05256658501086624,0.05128125782004013,-0.13169542642070373,2
12.725,21.4,6.225,5.775,19.175,20.45,5.925,7.325,838.0,1238.0,410.0,333.0,1283.0,1289.0,401.0,443.0,14.0,14.0,18.0,18.0,19.0,14.0,16.0,14.0,-0.22065325856465903,-0.2687366458891247,-0.03893452447427168,-0.346631575208975,-0.40320761100661956,-0.36151966503886224,-0.5656380816660912,-0.2778438672571353,-0.7034628885306957,-0.3596918494673079,0.02576917877085929,-0.0013308995190740823,-0.2749985618330581,-0.19501435286267949,-0.08748444483746873,0.02090858143332328,-0.49098730780481425,-0.3967368326929111,-0.29769650144453863,-0.2804076516168343,-0.3429819911120638,-0.12253670826885019,-0.16347914929671672,-0.2597428637178563,-0.6002905343276127,-0.30368730393867177,-0.30209906971843214,-0.3322757734161253,-0.09109140819848999,-0.22741037961476232,-0.1522707626720562,-0.26676355459284706,2
15.1,24.625,6.7,4.75,18.775,22.85,4.975,8.075,985.0,1485.0,415.0,283.0,1242.0,1411.0,319.0,461.0,17.0,16.0,14.0,18.0,18.0,18.0,16.0,16.0,-0.3811169476833839,-0.3842032731535561,-0.30172162567637995,-0.058502874591507686,-0.4670722102541105,-0.5075572515378209,-0.38937694571889603,-0.07292632915667406,-0.5984178806072723,-0.43198644931811303,-0.11865155346879783,-0.08628866132360945,-0.16861565507001758,-0.3096670154770311,-0.06043259167997303,-0.09703878740958273,-0.34873606872547386,-0.17562268295280517,0.07834708514686158,-0.08362372670787377,-0.523524323500262,-0.45669975043606037,-0.2616190180881217,-0.33043159517004767,-0.5970265710150888,-0.43707312994656194,-0.597640867373757,-0.5356677260506905,-0.18038348914112848,-0.018953811135950023,-0.18381362806706658,-0.243086733001368,2
15.425,18.0,4.375,4.325,20.15,17.85,4.425,7.925,920.0,1141.0,259.0,293.0,1399.0,1047.0,271.0,495.0,18.0,16.0,18.0,24.0,19.0,16.0,16.0,21.0,-0.41613653685977564,-0.2706273480324471,-0.1709011963587358,-0.021477720902702165,-0.6540159525313746,-0.6313691411928389,-0.4234348062850787,-0.07647780560059932,-0.4641733057924555,-0.2770139609527405,-0.29005140689833764,-0.06502318435458196,-0.4213703873534092,-8.382380039029068e-05,-0.0904658642965307,0.04047654579090825,-0.554290670946615,-0.35278605070300095,-0.10126635326069894,-0.21218321326604794,-0.4407459176267098,-0.18609021802557169,-0.27373796051451077,-0.3124965386798658,-0.23682034284414646,-0.22782457849824736,-0.17288431709891813,-0.21391996101491817,-0.5483235019070807,-0.4606838830314243,-0.15963071824395347,-0.148836006454885,2
12.0,14.375,4.95,4.3,14.45,17.25,4.825,6.95,797.0,836.0,322.0,278.0,869.0,1078.0,337.0,399.0,18.0,14.0,16.0,17.0,16.0,17.0,19.0,14.0,-0.3889721056186293,-0.28478607457219635,-0.11288794402354514,-0.358272457134927,-0.06960265623284305,-0.2444156825690033,-0.2769063618623899,-0.16157799980551185,-0.4799939275910876,-0.11527531005055328,0.10676522127843836,-0.14079077903050544,-0.35066505122623465,-0.04748452816772953,-0.13503897156318603,0.2076956814945511,-0.31431322418094826,-0.06381746930317418,0.17164793954587904,-0.007029327320016298,-0.42176586304977637,0.10916549963637319,0.0271626393281134,0.054759058237221894,-0.4793426709892438,-0.14992620141132437,-0.054086365577998216,-0.3430591599989521,-0.028537225756222907,-0.35786146942101954,0.07454801366301995,-0.12356668507105635,2
11.85,17.7,4.75,3.45,15.9,22.7,6.125,9.775,811.0,1181.0,299.0,178.0,1033.0,1561.0,393.0,616.0,19.0,16.0,14.0,15.0,24.0,20.0,18.0,19.0,-0.5476665564966168,-0.3445403513485083,-0.3742563270249479,-0.4615668805256483,-0.3865170153868139,0.061424728468314,0.15129599860146123,-0.04063417263590837,-0.2683722765292034,-0.09602399246398005,0.12228390017551449,0.12234001843583442,-0.08040239246458791,0.012981988261157242,-0.23438794683691422,-0.10874575216399716,-0.46519625714278634,-0.22761852656872908,-0.12378724053095772,0.14220303335511542,-0.7006129275265113,-0.5318137707566187,-0.28501735143414225,-0.21763493112556512,-0.3901640058004298,-0.38349547055337524,-0.15551664315057387,-0.45170749844349334,-0.28481653881086083,-0.3680659622653984,-0.11044996540533689,-0.47106941327520235,2
12.925,18.6,4.725,5.35,16.5,25.85,4.975,8.85,881.0,1105.0,301.0,305.0,1068.0,1699.0,325.0,620.0,22.0,15.0,15.0,14.0,15.0,21.0,19.0,19.0,-0.545455242276608,-0.344476278535586,-0.4157162575041365,-0.3420722258139128,-0.26146500528003636,-0.18880996676119174,-0.05377982882621019,-0.2361129845263186,-0.152225871228664,-0.3609469610806004,-0.043375381381926516,-0.060030961829662645,-0.33131794082070565,-0.3821370664089123,-0.346113219397735,-0.5129368600946982,-0.4315724513225755,-0.20592095008845823,0.1514615823005164,-0.1863617615869656,-0.5396495937068687,-0.3205203247181684,-0.08203055584423159,-0.07498412789516928,-0.6406296569344141,-0.4830727377603988,-0.3181322533780975,-0.1396191136509048,-0.6081707143384825,-0.344201242343119,-0.16928281582352983,-0.2679803317076895,2
10.925,18.8,4.525,5.2,18.05,28.6,5.725,7.225,742.0,1162.0,282.0,319.0,1333.0,1865.0,390.0,472.0,19.0,21.0,11.0,16.0,19.0,19.0,19.0,16.0,-0.377711877864595,0.01706474718025836,-0.46434011176421747,-0.39199971071484757,-0.09356324024458987,0.06951548448713273,0.09909331064653686,-0.21183893582827806,-0.2807757738310662,-0.010848637400439726,-0.016815741924608454,-0.11581626291533702,-0.32514955167560156,-0.2596392756130765,-0.11730569602033164,-0.29444257829092507,-0.5500061422280246,0.09392166839749365,0.06582093431447954,-0.27209184759349936,-0.3633429515103868,-0.2253305114016214,-0.048850879639841735,-0.2613525872971537,-0.6672002912711863,-0.47324805589911956,-0.2726626858817483,-0.20760044208227302,-0.4083550872818037,0.1676321253432875,0.00788525121196443,-0.21143185598562514,2
11.3,21.275,6.075,4.8,17.5,26.725,5.65,8.125,774.0,1365.0,401.0,292.0,1183.0,1715.0,320.0,520.0,19.0,21.0,20.0,14.0,19.0,21.0,15.0,17.0,-0.48857148277239937,-0.20303854423468742,-0.36979177036288086,-0.32016096724929366,-0.2841891907860009,0.18160393388945945,0.27797076119769154,0.002564588776176289,-0.4146154294368117,-0.13733127259154407,0.049140343619821225,-0.19544532154180574,-0.4294475320002535,-0.23208463587382505,-0.35499425019626885,-0.45197244769964323,-0.5148486240863734,-0.09693783844207163,0.24451790964570494,-0.1456635459428131,-0.7518254351213955,-0.636937252088931,-0.4387117526927765,-0.3693334160336377,-0.532886951186755,-0.4334249780734475,-0.27242056109147395,-0.4034309754503027,-0.19774278563712333,0.12128860113655561,0.07937587227258247,-0.17871716055764789,2
12.775,19.35,6.35,6.325,20.3,20.8,4.05,9.675,882.0,1286.0,439.0,417.0,1192.0,1369.0,220.0,614.0,22.0,20.0,20.0,20.0,15.0,19.0,15.0,21.0,-0.4937194364780185,-0.20789292092309733,-0.3489926977151277,-0.25718199034154676,-0.7819982297775739,-0.6335510495583171,-0.5766479179800005,-0.50336862282006,-0.6484573425171077,-0.5505490126215412,-0.1834851906690781,-0.3657108333853521,-0.5962515877217469,-0.32932615158774015,-0.5051742845695748,-0.5445301715185893,-0.27918601736880605,-0.04690404580860654,-0.2219360910056748,-0.15279974861962972,-0.4176694849769509,-0.10302478167000938,-0.31987304397923094,-0.22379425376515305,-0.12113415742757011,0.021418030981805624,0.024720161372365736,-0.13270445126361746,-0.20513795988602773,0.059815608245976544,-0.06449347135350013,-0.14276813697856558,2
15.575,13.3,4.675,3.1,15.825,19.425,3.675,7.425,1049.0,826.0,299.0,190.0,956.0,1208.0,222.0,534.0,21.0,18.0,17.0,16.0,13.0,17.0,15.0,20.0,-0.6916714846783922,-0.45589887444763916,0.08751314237165063,-0.06715775537125916,-0.3260545385351649,-0.20269437862870374,-0.25061157225731423,-0.13384001608998308,-0.5866612851298731,-0.4374346201139617,-0.23210004048603244,-0.09687234389667727,-0.4482084764994736,-0.5773446894720595,-0.2264701009769201,-0.27032862755683823,-0.3304889103004705,0.16089707455204616,0.19462753373627645,0.0336545208084141,-0.302705238862691,-0.008598018754387706,-0.07864726770721299,-0.050463408120808365,-0.40296599353476614,-0.25261635629305074,-0.18252293552009521,-0.09295032360866225,-0.6196769710808379,-0.09396305630405281,-0.4052294296544153,-0.28045453798585157,2
13.5,18.875,3.725,4.825,20.85,19.025,5.025,6.225,844.0,1283.0,210.0,260.0,1341.0,1234.0,307.0,418.0,18.0,18.0,10.0,13.0,18.0,18.0,18.0,18.0,-0.47412038070088486,-0.3117489017151352,0.04360280425466198,-0.0528527286844196,-0.4983024017201618,-0.009051627738128959,-0.1709947949982976,-0.25425209543262783,-0.2657524857499609,-0.010167205137292273,-0.001935764658209358,0.1100558272608841,-0.10126001920095386,-0.3905000718101413,-0.0759828345154655,-0.4049209543781328,-0.2989776554768913,-0.05296559435554645,-0.14253352705364333,-0.46660777436190226,-0.27589331229681413,-0.32639807265554555,-0.004076421641977446,-0.37905872253450973,-0.5636181509452356,-0.39135825660841717,-0.4074016059555025,-0.22967729629297656,-0.30120644959283865,-0.029289399325428938,-0.17256889021344524,-0.012285494406574388,2
10.575,18.075,4.4,6.325,18.1,20.325,4.825,6.9,653.0,1102.0,228.0,405.0,1153.0,1176.0,287.0,462.0,19.0,15.0,15.0,19.0,17.0,15.0,18.0,19.0,-0.42486147326612544,-0.44131441074557,-0.1733063786929834,-0.3107884618652941,-0.4700084892776599,-0.5954592224379784,-0.4722108364942256,-0.4157750078082233,0.08419868509049792,-0.16727920815000483,-0.1897222202124323,0.13117248857396138,-0.49678883868435464,-0.30030760978702553,-0.2505588079853864,-0.21125010150793075,-0.40418805801795554,0.07876399798879487,-0.11013633206385957,-0.12833853938257603,-0.30037827131741607,-0.13698296346407787,-0.23634584700505523,-0.4058819442186154,-0.30577583515506657,-0.24649518821268016,0.19498964551635983,-0.06901295834395897,-0.36104398360849677,-0.025863375222447846,-0.03391119976467931,-0.09310990000424399,2
9.425,18.1,5.8,4.375,14.275,20.9,4.425,9.35,632.0,1087.0,308.0,245.0,942.0,1395.0,257.0,605.0,17.0,18.0,17.0,13.0,21.0,21.0,12.0,15.0,-0.6082279406894183,-0.0884091720171405,0.017869618251091596,-0.20833907480566224,-0.21851500069988566,-0.3905114580927046,-0.3404262487048,-0.15565484338701652,-0.14259794655735927,-0.20761855897458018,-0.39621630562508187,0.0043574635387259066,-0.16349804705358834,-0.1263283916795196,-0.4185785364326039,-0.10163610427935547,-0.6184496638519705,-0.27152267486083814,-0.24736631772895842,-0.2788013046063942,-0.7211755980539476,-0.3790654015141419,0.01385809336070383,0.1716899191107882,-0.22572445197270424,-0.3915458754604861,-0.07499177562255474,-0.18102450981693288,-0.45067606066953503,-0.06236084728993159,-0.23968183630512563,-0.22653344120054955,2
13.675,13.2,4.05,4.9,18.675,19.9,5.2,7.75,914.0,852.0,235.0,284.0,1214.0,1206.0,352.0,509.0,18.0,13.0,16.0,17.0,16.0,15.0,19.0,19.0,-0.4076191801212797,0.0035693490667200243,0.14875738680193257,-0.16136739811690118,-0.1743988736044011,-0.2522760659622791,-0.4279509911985902,-0.171589826214637,-0.1719204468737524,0.1342392621095297,-0.3249027520036894,-0.21740370940710105,-0.26455031147374897,-0.007683028145480144,-0.08223527483464178,-0.25320343683731644,-0.43467221329862976,-0.47458133779358785,-0.2166620569235629,-0.10560330577609678,-0.25062323956566257,-0.37296104038766514,0.05228052187451813,0.06858635264533773,-0.4276545118325671,-0.23699312347733276,-0.08931646530729274,-0.25172094830703495,-0.49158133934253007,-0.012310797523527607,-0.3413558632613291,-0.35452710388604813,2
8.475,17.0,4.325,4.475,15.7,19.95,4.875,8.975,534.0,1110.0,252.0,291.0,1010.0,1259.0,270.0,650.0,15.0,18.0,15.0,20.0,17.0,18.0,14.0,18.0,-0.09838754052194318,-0.005398527251608897,0.004555978339215834,-0.315218909468768,-0.4801772410969807,-0.37032486056036434,-0.42429643049470955,-0.4886152544697082,-0.14714873306890175,-0.3357414302336565,-0.07600940609941782,-0.3087082116679141,-0.6070942105182262,-0.019026788018222666,0.2789952998299513,0.06387496750105355,-0.43990762740756734,-0.40986349102858655,-0.1007969931791732,0.11281006426146065,-0.19444149570270797,0.10282567873841393,-0.14534008411127983,-0.2591501025711628,-0.27278861799709714,-0.24893350986482607,-0.19298381030612824,-0.18580890780985113,-0.5776361832295462,-0.06105653168068659,-0.16534123465219613,-0.2674506225903972,2
11.15,13.625,4.475,4.55,20.325,23.15,4.55,11.275,775.0,758.0,294.0,307.0,1371.0,1572.0,280.0,792.0,19.0,17.0,18.0,19.0,19.0,18.0,14.0,17.0,-0.6567673458760478,-0.31381335304146457,-0.3081245095807748,-0.2811475322029382,-0.03438117883743399,-0.5137263844205445,0.07198152520042124,-0.48483755762895914,-0.47021614911631904,-0.0713303492266035,-0.15819384233471617,-0.2890770233606251,-0.4200785333152801,-0.02020380915986294,-0.09557995105817202,-0.5457253865454668,-0.5543889139540715,-0.2476560113579794,-0.17496719555210782,-0.33529667654914425,-0.5371637362032406,-0.24031520436324705,-0.24831585523956615,-0.46828363912851406,-0.4831958181148152,-0.2102979259383715,-0.5638906981218675,-0.4508361253236752,-0.6307705905666163,-0.0846001829035521,-0.1365551824078359,-0.24242730394593037,2
9.225,17.325,5.45,5.175,17.775,19.55,4.3,7.9,621.0,1160.0,346.0,343.0,1126.0,1135.0,246.0,510.0,18.0,17.0,13.0,16.0,16.0,13.0,17.0,15.0,-0.5259023191073979,-0.33486429847505045,-0.143179352674357,-0.1056249532724692,-0.4924566384127807,-0.5678262714420185,-0.31960688009277194,-0.5312645079391468,-0.4847495921902601,-0.24044676270099133,-0.19104644580742544,-0.19985721840107767,-0.8683342016142451,-0.7819830868709039,-0.7746291290993502,-0.4248198249745182,-0.38836633029129913,-0.2640452045914053,-0.19681641490660176,-0.2515027003364846,-0.3864147401143342,-0.26863751600921665,-0.05037081912880639,-0.24037789854011796,-0.2859911598887103,-0.1293469212856031,-0.36599809254664584,-0.21034965589834267,-0.4289161670844471,-0.17039416305562866,-0.24364852097995243,-0.11270094279345809,2
8.425,17.2,5.025,4.55,20.3,21.7,5.075,7.6,543.0,1149.0,351.0,286.0,1322.0,1514.0,323.0,514.0,19.0,17.0,18.0,16.0,20.0,20.0,16.0,19.0,-0.38996807709348386,-0.18641351214765348,-0.13516523674703726,0.09775919938387688,-0.41396417708531186,-0.305901878203565,-0.10516172572493762,-0.2424127342351937,-0.3124698874776663,-0.11207856556944952,-0.1761850643788953,0.04277968988988634,-0.49188942787470846,-0.4469362639617465,-0.5131963823460438,-0.2913666236424663,-0.5393639894287307,-0.23164008951920814,0.1139140874367664,0.014244745951502932,-0.3772094964267485,0.011074855968440723,-0.1322072903435083,-0.30886970985976825,-0.593826871973505,-0.4324502661733982,-0.5499711204468135,-0.4762487624324514,-0.3403215029084281,-0.1665143070040785,-0.1687520249103353,-0.4183060737338751,2
11.175,15.95,5.975,4.95,21.25,24.075,5.45,11.85,748.0,1064.0,385.0,289.0,1435.0,1543.0,363.0,858.0,21.0,17.0,20.0,20.0,16.0,16.0,15.0,22.0,-0.9858998757165478,-0.7764782267762012,-0.5988839989772764,-0.21344321900562754,-0.47037600865359286,-0.26643815329584875,-0.32063419843586327,-0.13919715224958962,-0.5888509365386879,-0.39237180644638237,-0.5447247685698444,-0.5536080556565218,-0.2191648598331878,-0.20230753989817757,-0.2829490333981763,-0.23481853198587846,-0.653539052165675,-0.20993035523326228,0.032419652725060595,0.05381420416507615,-0.3181300418123116,-0.15139869979436002,-0.2311632649472841,-0.32159529341175475,-0.3754976628988112,-0.27642448268347564,-0.15536571185820372,-0.30431243715087003,-0.4816899780188063,-0.1099737850557494,-0.1267189604026396,-0.14686233616957683,2
9.325,15.0,4.175,5.175,12.15,20.025,4.175,9.0,642.0,930.0,293.0,332.0,733.0,1097.0,232.0,608.0,22.0,18.0,15.0,15.0,12.0,13.0,15.0,22.0,-0.5818810494332353,-0.10079920176656199,-0.10096970675536915,-0.18896828471448085,-0.29957781789325666,-0.3708690446160354,-0.16734644979483937,-0.282653241464256,-0.6448227148153661,-0.43814574799055006,-0.2702837490213479,-0.16709955304601776,-0.2609918253366922,-0.19323041024606671,0.014027762168938874,-0.40512715842494035,-0.22129433085741976,-0.19131534225860836,-0.3866680771596576,-0.1337938278334737,-0.03707412694638422,-0.2709113524514643,-0.16077938532800928,-0.09647106150883379,0.01545361867141995,0.05577549580257104,-0.25441524270936444,-0.18817789505884358,-0.56081964662828,-0.22247926106937943,-0.2427716446663149,-0.2211407860124819,2
13.8,16.7,5.35,5.8,21.875,23.925,5.4,8.375,968.0,1054.0,371.0,392.0,1320.0,1568.0,360.0,562.0,19.0,18.0,19.0,22.0,20.0,17.0,20.0,16.0,-0.49767480513699197,-0.1151243930507585,-0.06736546418014329,-0.21669532076069398,-0.3135041546712652,-0.39497894435478476,-0.18904170267284565,-0.23010193634117576,-0.6101326894172264,-0.2728263972762818,-0.28205192779675103,-0.21852238600900975,-0.34436194714520163,-0.09070414782666532,-0.3252764738519853,-0.3877636616209257,-0.26568228569772523,-0.21855609915649715,-0.3339023088689558,-0.13411892762097907,-0.47485768244367055,-0.39623211078615533,-0.24076660589666932,-0.281138180495275,-0.5839546651461093,-0.2516605427883873,-0.24451556612399392,-0.4095050866298348,-0.352484255263618,0.1559759631495562,0.13772860564049896,-0.07538862546520202,2
15.55,13.8,5.6,5.6,16.575,20.875,5.325,9.55,1010.0,879.0,367.0,348.0,1158.0,1340.0,360.0,677.0,16.0,16.0,18.0,16.0,17.0,17.0,19.0,20.0,-0.554464478750388,-0.5751712722819233,-0.4052965240860459,-0.38475457550850667,-0.4041589016209718,-0.4532949372513528,-0.34617499262561297,-0.16425597771278735,-0.5966139752536681,-0.44877907594865074,-0.20984548057390165,-0.23564747828030902,-0.3473693550631277,-0.19178294179587946,-0.36689219802700684,-0.25665080516794153,-0.30747035341378454,0.07638074130343675,0.2601635607706077,-0.07220164008161022,-0.3506812853763959,-0.2974767624124372,-0.28203496616296436,-0.3446960165818789,-0.6021479892060444,-0.09172184748163986,-0.4534988704026818,-0.5426998859812312,-0.5046248108531799,0.01490391111973547,0.18873417400158768,0.04615214348424043,2
12.275,17.9,5.5,5.125,19.65,16.925,3.7,8.275,823.0,1086.0,354.0,326.0,1403.0,983.0,201.0,529.0,22.0,18.0,16.0,16.0,23.0,13.0,10.0,18.0,-0.2585886255284849,-0.4342853618450504,-0.10790282103836503,-0.4339679269429224,-0.4264919936817449,-0.5624300251690868,-0.3363257107209513,-0.5845766589702159,-0.4881161176887238,-0.22616894144684985,-0.2944663804360959,-0.41857550621695744,-0.3601320030484423,-0.049599056696450025,-0.23034418489032296,-0.2581368442113396,-0.6476948365450607,-0.0447071901382308,0.3359018830918792,0.1198579678845545,-0.21483285907226563,0.09010156177094861,0.0832874848810974,-0.0756190790876947,-0.0851841581292862,-0.0862717478716794,-0.021323965493989707,-0.0622367406693347,-0.33509037341732334,-0.18996564849037495,-0.15996659179037384,-0.27566754711977554,2
10.525,14.825,4.3,5.225,16.0,21.35,4.05,8.675,734.0,926.0,300.0,319.0,1084.0,1301.0,254.0,530.0,18.0,17.0,18.0,17.0,22.0,16.0,16.0,19.0,-0.5026787152606327,-0.09329388536798254,0.0962707793470394,0.06390875230127407,-0.5818191929304102,-0.5038246375470276,-0.33299578017112663,-0.28487038687504984,-0.29851304489509406,0.011908391195491723,-0.08276992390796371,-0.09287999973643682,-0.3788107254197555,-0.11885483646240519,-0.2698282729783659,-0.3837610978254492,-0.31165798650479004,0.10998545098617242,-0.26515162702575684,-0.30488150699214533,-0.120741667654987,-0.2204024714260957,-0.006598616723834811,-0.15521764792097764,-0.20258540865355792,0.15050385375739594,0.02981174514020623,-0.4523396638733644,-0.3732112218513657,-0.2173100574540692,0.20103285147066555,-0.196497903561593,2
13.825,15.25,4.0,4.25,15.325,20.825,4.775,9.075,958.0,922.0,253.0,226.0,1042.0,1400.0,303.0,588.0,18.0,17.0,18.0,13.0,17.0,19.0,17.0,15.0,-0.6106577585293002,-0.35711238177408067,-0.3912888369746341,-0.33393102384556816,-0.28509373525478815,-0.29575887932566314,-0.059483038662417796,-0.18567267464343828,-0.3109301580188328,-0.34116256602516754,0.13275838263491999,-0.008342472927041846,-0.06465794237726498,-0.2781741952353292,-0.21122702987253925,-0.33884945849943204,-0.43010798438608494,-0.19981357660958474,-0.24836822376198,-0.18736761989920622,-0.34104992972705966,-0.223336113525515,-0.10683441687802489,-0.09739228868296905,-0.3327928653526512,-0.18832313157187028,0.014089403198905025,-0.3804845458224367,-0.45188446871024934,-0.018802305254029244,-0.09088157165024484,-0.336954542578075,2
8.6,16.5,5.15,4.8,15.25,17.75,4.875,10.25,577.0,1080.0,312.0,272.0,998.0,1161.0,329.0,654.0,17.0,24.0,15.0,16.0,20.0,16.0,18.0,20.0,-0.3810136026177411,0.04935127371769397,-0.2383330664975139,-0.4017452619873067,-0.5654305853211757,-0.34068232744556914,-0.3647783857586947,-0.35548968878219295,-0.40099399251369133,-0.3586141487354715,-0.034285208264113715,-0.1597852459810756,-0.21506964947420837,-0.3623534109634972,-0.11832046972342973,-0.21617627733709419,-0.2493822293745662,0.04722695122395888,-0.16986954377249047,-0.28689704569721947,-0.2520963473332653,-0.11421017642603176,-0.11602941135782802,-0.3814675113189972,-0.5925633427488166,-0.35421629523340553,-0.17195777912590943,-0.18508954087798846,-0.46229057982770194,-0.19572843895973305,-0.10516653165294043,-0.3433984464202422,2
12.35,16.75,4.075,4.425,12.7,18.05,3.35,6.75,842.0,1105.0,235.0,295.0,832.0,1103.0,200.0,388.0,21.0,18.0,12.0,18.0,24.0,18.0,12.0,14.0,-0.3578579425517111,-0.17188400969678316,-0.20281892248268615,-0.3334939436332117,-0.5314151042590575,-0.48964889146420537,-0.33955018797307807,-0.36149635829988114,-0.29319872906751043,-0.12257565350029287,-0.35202528351730894,-0.36526091212167283,-0.5284295176762751,-0.48398822657980506,-0.31816857431531126,-0.3012857369345796,-0.31176662807156574,-0.4037057660782506,-0.10454643336288964,-0.3222958438293026,-0.4214255545480462,-0.3149371843357069,-0.16810182233021673,0.0683176823602639,-0.28944621921542707,-0.27951130680937825,-0.05860203044361424,-0.2883021608739643,-0.34879766902373877,-0.3485213034814913,-0.41575499409966826,-0.23997335545377138,2
16.325,13.875,3.525,4.225,14.55,20.125,5.55,5.75,1032.0,842.0,210.0,294.0,899.0,1231.0,334.0,370.0,22.0,14.0,20.0,16.0,17.0,17.0,16.0,19.0,-0.35273941817571847,-0.2823749595321256,-0.23902346707536956,-0.3568164994080602,-0.14570962099704096,-0.21839692565875593,-0.1258457628732375,0.024289346509993915,-0.2512718903990773,-0.1749739890451714,-0.08316858825640328,-0.47480013851055025,-0.5718368628585555,-0.27901161493566384,-0.14676524141307978,-0.02362393571377222,-0.3273855326252521,-0.2251374537188372,-0.19826477012877472,-0.2431288462659545,-0.3676043131813299,-0.16792989459735527,-0.25469373061812606,-0.2656905057502846,-0.24207841821542753,-0.14167763999943875,-0.12604937966093846,-0.14417931743250445,-0.27301117544398024,-0.14892903919121755,-0.0035110498260839426,-0.04939857616963337,2
17.325,14.025,3.875,4.425,15.825,20.075,4.425,7.65,1160.0,897.0,265.0,288.0,1032.0,1220.0,268.0,470.0,16.0,18.0,17.0,16.0,19.0,16.0,17.0,14.0,-0.45519526514636954,-0.32117372384059056,-0.1029709086457544,-0.30020058789070353,-0.34484602089507277,-0.34119518236485696,-0.06229181869572632,-0.3659103645649931,-0.5824993668362614,-0.3475310675193948,-0.26064601961890266,0.11229142095518746,-0.41819332611609616,-0.43262762189277176,0.006247314416420683,-0.17152104142742963,-0.5056864581588402,-0.390728472881003,-0.11789934640732146,-0.0366410579293451,-0.37134380463342415,-0.4621735383496485,-0.2892397837558925,-0.27833790281252035,-0.3852400663076857,-0.4352109619506807,-0.10920967905117471,-0.4004134787621184,-0.19332387869940768,-0.3909920034842306,-0.06623901276356922,-0.4927431698165717,2
15.025,12.45,3.45,3.95,14.125,14.575,4.025,6.825,1032.0,719.0,182.0,242.0,890.0,888.0,232.0,423.0,22.0,15.0,11.0,15.0,15.0,19.0,13.0,18.0,-0.5100893765848049,0.0014708088583657727,-0.04059149702481986,-0.23760818291724153,-0.23993575574696496,-0.28119315908972187,-0.035483102421671145,-0.23911677230944264,-0.05421239302898614,-0.34566168673155956,0.00044674585035421447,-0.06163618659767818,-0.345796135593729,-0.2791151556693366,0.01974202140588125,-0.11326510907147609,-0.5219196176845299,-0.09996100009514937,0.1979228683595808,0.04383909253373542,-0.4042884937377672,-0.374081406912984,-0.24580583331575268,0.0702348045315157,-0.3601767333119671,-0.40901788526445937,-0.36524760580514787,-0.3994731962970651,-0.27450364539267397,0.09879286749911556,0.10236473030054843,0.16695509287621135,2
10.125,11.125,4.625,3.925,11.2,11.65,4.3,9.625,687.0,736.0,291.0,230.0,672.0,709.0,251.0,665.0,20.0,18.0,18.0,14.0,14.0,14.0,13.0,18.0,-0.44618052997501184,-0.1051368368610844,-0.29606533895537424,-0.2903961902247354,-0.6358114725816056,-0.5178443994048428,-0.28225989960541875,-0.34124781466683296,-0.2876906280137444,-0.3574009516966559,0.15258959759415075,-0.10904808316395481,-0.1943932570602464,-0.3235892657543148,0.07008073788684918,-0.40776621893811604,-0.5337283342263227,-0.6468266237770501,-0.26205323718094653,-0.24763050261643033,-0.15972867313317043,-0.3808411517787684,0.13611140581581718,0.06916657160872389,-0.26660380665133515,-0.1506938752581555,-0.14861104680035556,-0.08552549222661998,-0.48677421333927173,-0.12365337021817299,-0.360898198382543,-0.2234816414532825,2
6.95,13.025,4.7,3.575,13.975,15.9,4.575,7.65,466.0,796.0,328.0,218.0,929.0,1090.0,293.0,486.0,16.0,15.0,18.0,16.0,20.0,17.0,21.0,15.0,-0.6017003588302003,-0.2107419633384637,-0.5331257411268472,-0.37734809343396464,-0.3306978122452446,-0.2920235364465468,-0.4108046775665365,-0.33682784530127546,-0.4489353302540805,-0.3443940456272451,0.02424168637399619,-0.1770429716793779,-0.30617480160213045,-0.3313711607647341,-0.06252775484250338,-0.23962089277282672,-0.5544748587505606,-0.32715194588358343,-0.15802668541436907,-0.1572268921783569,-0.38900843266776236,-0.23190095329165605,0.10564510347361367,-0.12070013085935927,-0.3272719878789881,0.036373593597792596,0.08114783516756363,-0.048598413590940255,-0.41990813294465335,-0.1737046824789611,-0.11630629177057542,-0.030863555395063667,2
6.675,10.65,4.675,4.025,15.65,18.65,4.825,9.0,438.0,702.0,299.0,256.0,970.0,1146.0,291.0,604.0,16.0,20.0,19.0,15.0,21.0,14.0,19.0,20.0,-0.2850182746454135,0.007977305118861624,-0.1299062675149054,-0.21291567081462365,-0.7168381589075613,-0.6580933511163692,-0.5020494206550159,-0.3427546838346032,-0.4364341770975476,-0.24627000461639073,0.15046911123621803,-0.2780190335898659,-0.48886927775417066,-0.32878445099137,-0.4797247416584693,-0.41728292566791825,-0.48713668659149384,-0.3527472373265097,-0.28512388292903906,-0.254212375726737,-0.165010587383801,-0.3598560542537072,-0.11763942107149952,-0.433835488852482,-0.38205217414704845,0.0545912476525955,-0.37844762129798554,-0.39266502971822503,-0.45834960249766876,-0.18103265260808313,0.22352177223509848,-0.0751257889816126,2
11.65,13.45,4.05,4.0,15.675,17.675,3.4,7.75,746.0,784.0,231.0,242.0,1055.0,1080.0,203.0,480.0,16.0,15.0,15.0,14.0,19.0,19.0,12.0,16.0,-0.6201161251570461,-0.5758595712999268,-0.4584208436464169,-0.41989805336449904,-0.41523976483742486,-0.46381524896898896,-0.28069067086386207,-0.2549967997465836,-0.17939322744677091,-0.18088989935740266,-0.14725322654620504,-0.4460430722435162,-0.14869497558493966,-0.14658814361258696,-0.26039582232490033,-0.434889737372092,-0.5029990287172265,-0.035683291728333344,0.029072600814485323,-0.08569192585204898,-0.2078922102832111,-0.21811674612461202,-0.30788362872319697,-0.3723180107636598,-0.475669156063396,-0.39065196089327,-0.45755891986748864,-0.33029605263749356,-0.367178397987085,-0.45832976529892844,-0.049125561440526176,-0.32195404346340456,2
9.075,13.0,3.95,3.275,16.125,18.5,4.0,7.925,497.0,817.0,242.0,219.0,1086.0,1194.0,262.0,540.0,14.0,18.0,16.0,16.0,19.0,19.0,17.0,17.0,-0.018056375830887986,-0.4399202626802851,-0.028156067374833376,-0.29946620149131054,-0.5277162986151973,-0.6265951142496979,-0.3933501908987479,-0.2593663381676,-0.2874497331172301,-0.10814927884364166,0.06226136968973008,-0.10264679738916646,-0.7007218440884913,-0.6618108890339437,-0.4575087327011279,-0.24029208963842932,-0.4687722282810843,0.01592231021986262,-0.311908291533126,-0.46597824056290804,-0.4912454336307555,-0.5130269742235418,-0.2428382593303176,-0.4720002882464602,-0.43370738416712046,-0.2416643796574384,-0.1069302605183802,-0.20585114847953187,-0.5584317290100557,-0.30105927178256875,-0.10789963921064767,-0.12171979542672873,2
7.6,12.4,4.65,3.975,11.9,18.925,4.25,9.4,483.0,801.0,291.0,272.0,746.0,1163.0,272.0,574.0,21.0,18.0,18.0,16.0,18.0,15.0,14.0,15.0,-0.4347725985664752,-0.0631838470299291,-0.3302568707877215,-0.29043187352730054,-0.4011527387013299,-0.11988936052783553,-0.27423037267649736,-0.06994926418945474,-0.44611675113881344,-0.2748195659340501,-0.2371956312669004,-0.30756966868352614,-0.5702541267897299,-0.27218711979090193,-0.30035732131340426,-0.30802385713765695,-0.31253720156538783,-0.05640866858107942,-0.19872065661407165,-0.12948975304556704,-0.4687126572199362,-0.36885236732458543,-0.43357270486535293,-0.2852692222668272,-0.44014137567315037,0.0015090609475414607,-0.304264466218528,-0.3944056765646842,-0.3212246448547423,0.01684793160920062,-0.17929849031389528,-0.25810858008877996,2
8.2,15.175,4.525,4.025,14.175,12.55,4.375,8.8,446.0,949.0,274.0,263.0,1000.0,845.0,278.0,498.0,12.0,19.0,19.0,16.0,20.0,15.0,21.0,16.0,-0.13883409812479927,-0.25786158497048095,-0.18770131791025463,-0.23472891073753963,-0.49812106249449295,-0.21949750263910964,-0.3059035303215113,-0.156966211354341,-0.3418680957040459,-0.14884591208342102,0.004370416870454411,-0.12577085175048375,-0.534364799129674,-0.4059861325596985,-0.1387359091471403,-0.22907870822342224,-0.7074073139668641,-0.3697924836933804,-0.33328769283884235,-0.21804050595519683,-0.7955150373394068,-0.5343249614731963,-0.3851175057237475,-0.3383361266606916,-0.7418303540438234,-0.42501145729488365,-0.5330318223095968,-0.32036362169811644,-0.17820439688715012,-0.013495056328705625,-0.14721834727618477,-0.26681656490376765,2
20.25,28.775,5.775,4.975,19.625,20.4,4.975,13.525,1266.0,1961.0,366.0,257.0,1270.0,1395.0,359.0,871.0,17.0,21.0,19.0,13.0,18.0,23.0,18.0,21.0,-0.22086444112448259,-0.24697592022895076,-0.186042930531735,-0.16299965460651183,-0.6212139761510529,-0.545044790821178,-0.5117097484350263,-0.19930132098877923,-0.6680386522919167,-0.7276910552305985,-0.44891301484024665,-0.2777927830955739,-0.23997251361477165,-0.5447609527375311,-0.3441063394040661,-0.11486966093267353,-0.6716929761286642,-0.5608564210608367,-0.3943437204433777,-0.20346130414443137,-0.5406614787392806,-0.23770560991024736,0.09928081260468218,-0.058290142373213685,-0.7605847841201282,-0.4313121914045235,-0.5510667291804666,-0.28264719329508997,-0.2689010846178761,0.14198317891398798,-0.08740070442274428,-0.3720491095070152,2
31.275,26.05,6.775,5.3,22.7,24.925,5.65,12.95,1971.0,1474.0,450.0,308.0,1408.0,1572.0,374.0,813.0,22.0,15.0,19.0,13.0,15.0,17.0,17.0,20.0,-0.557537074997658,-0.6112812472340882,-0.2884641922818138,-0.17781864752581925,-0.22731289353845363,-0.2908238275410667,-0.058694219907650676,-0.1906552881256961,-0.5012571353155117,-0.23610022974301242,0.13288042022813948,0.1423717952844705,-0.2072703166883299,-0.29726305806747294,-0.3401926842644058,0.03777195023376071,-0.38288759281952855,-0.3520050968714546,-0.3487767050048656,0.08035412762829519,-0.36011296766445344,-0.37123254717012094,-0.26692733411569913,-0.13069882980736677,-0.38790431658087365,-0.1836140977960744,-0.44860677654625564,-0.2621242263628622,-0.5130350571095552,-0.3064379710744585,-0.4288862836390006,-0.26184330077297496,2
24.925,26.725,7.4,4.9,15.975,28.35,6.85,10.35,1467.0,1473.0,488.0,326.0,1094.0,1891.0,424.0,627.0,14.0,14.0,17.0,18.0,18.0,18.0,18.0,16.0,-0.5224821333069325,-0.5710023414168292,-0.13476370833934292,-0.17603007805715612,-0.09880321515591561,-0.2807931772819944,-0.0020022601334858826,-0.3314111948190311,-0.30293079043508936,-0.23065126356677232,-0.02946735619924334,-0.17294793203358855,-0.5099408992876598,-0.35011152140490287,-0.3555763596931525,-0.21546292390465893,-0.5946285493242545,-0.46438218190588154,-0.35517652764687013,-0.127656635300543,-0.48532609382839054,-0.07071330164950397,-0.14891170522003827,-0.21291140524621952,-0.5592988822505792,-0.4835337996564817,-0.4200044396857452,-0.30075870750420197,-0.32429721352790375,-0.21483962309505714,-0.4007955539742352,-0.18935757752972718,2
20.15,18.475,4.575,3.375,15.15,20.625,5.45,10.275,1280.0,1031.0,281.0,188.0,1008.0,1276.0,334.0,651.0,19.0,17.0,13.0,12.0,16.0,12.0,14.0,15.0,-0.5551840150501683,-0.5071091820296042,-0.3625700318212533,-0.2432614018158465,-0.09860264412849822,-0.16622758339060778,-0.038294196757725926,-0.038964870828437234,-0.4649459420154812,-0.1604399685181803,-0.03840440831749069,-0.25423301805302817,-0.12488415938308468,0.16457273989147903,-0.029155427584179817,-0.24928699791616535,-0.30741224223981084,-0.014862742222736381,-0.04504613477806339,-0.26369035015879944,-0.037962667765350296,0.06678965718918607,-0.0953817457004078,-0.10317328516648147,-0.2702145840661308,0.31125159005218944,-0.08790238722706721,-0.3275357375075795,-0.3931786923345768,-0.21366007626672429,-0.2270936463079797,-0.15875235902433227,2
13.625,20.175,3.9,3.85,19.9,18.475,5.225,9.65,857.0,1326.0,219.0,229.0,1234.0,1069.0,349.0,553.0,19.0,20.0,19.0,12.0,15.0,18.0,18.0,17.0,-0.29067719618566484,-0.3387233757367497,0.0036732541854490983,-0.07734160063381822,-0.41769931611420213,0.20326353975106276,0.27295322952391265,-0.13367313242503637,-0.2606516983251242,-0.28135797998014084,-0.08314543359912557,0.05737709993207245,-0.34076534386570534,-0.2533402612127997,-0.2282830197774727,-0.1582886963164351,-0.5117927088245439,-0.20015822655614626,-0.10825312083533335,-0.11408042392768997,-0.18838961348482158,0.06429353124079838,-0.06165351695773337,-0.25066319118514396,-0.5114989250429498,-0.19736052841884738,-0.3454836728663967,-0.398812930603517,-0.2873867197406087,-0.31622174393991676,0.051002325900033126,0.04833111472435201,2
13.175,15.675,4.6,4.5,14.95,21.325,5.425,8.35,924.0,1000.0,279.0,297.0,921.0,1354.0,350.0,510.0,19.0,18.0,18.0,17.0,20.0,17.0,19.0,13.0,-0.5354219437732349,-0.08534083354796622,-0.310039942545865,-0.34694321593884614,-0.4224446030502775,-0.307865725289111,-0.076801276284337,-0.22967662654926949,-0.3424735986321104,-0.3247192508028901,-0.1922705205564401,-0.24681825962761605,-0.5226665730492658,-0.24869761747743904,-0.2599225017095869,-0.3199634940755711,-0.4572524198445405,-0.2667328171081769,-0.3153261781210997,-0.4595322480172963,-0.49201450403355035,-0.28653777705098965,-0.2636468330206317,-0.21265772503634742,-0.6202905097829847,-0.341244006585912,-0.3042218199637842,-0.23906462795372288,-0.3713607171307926,-0.3208913730244066,-0.13831173888784518,-0.033660675554521714,2
15.125,17.575,3.95,5.025,16.2,19.5,4.65,6.9,1019.0,1095.0,252.0,328.0,1063.0,1239.0,262.0,400.0,18.0,14.0,20.0,20.0,21.0,21.0,11.0,13.0,-0.7925318631850928,-0.6047647686636147,-0.5905445192143138,-0.29248765640978946,-0.3434486548820468,-0.24613290712547187,-0.4328887299314074,-0.15336204104514622,-0.3417273586072844,-0.25990084603323726,-0.04811773183661547,-0.2190043240836605,-0.6690243442555351,-0.5470064769246732,-0.3996335604205355,-0.3427119295261687,-0.5131893833646904,-0.20803096079441633,0.0439449061566805,-0.07569751030048018,-0.39905369942590957,0.10048605521484949,0.1024016708694889,0.06305134455991904,-0.21171286817961057,-0.00026228960164796124,-0.38327028811654146,-0.11384716276091789,-0.0583046977439886,-0.08668114814157397,-0.18927917950309453,-0.010652364790842262,2
14.9,13.5,4.7,4.65,15.95,16.95,4.425,9.85,917.0,786.0,319.0,286.0,1010.0,948.0,270.0,659.0,17.0,15.0,19.0,13.0,15.0,16.0,14.0,21.0,-0.5057564926033338,-0.43041543913062,-0.3770155873566786,-0.06032062292697995,-0.22024418103166468,-0.272439995460397,-0.03974000887218243,-0.20991610936167032,-0.44649917441618386,-0.3990528547170049,-0.6539549855361187,-0.1361316212577276,-0.43989513016773474,-0.290502631252404,-0.4024903101277463,-0.30192912457922816,-0.40361138561312193,-0.256249576079168,-0.11647042692832331,-0.1125740083993925,-0.23943248595283737,0.19794893555932513,0.07333451194286746,0.01009165204539811,-0.30675854072701847,-0.17591008002229877,-0.1330738692244817,-0.01964702354334676,-0.3923363231109107,-0.16249322471737485,-0.13781264776741226,-0.11595739251295327,2
14.45,15.125,5.525,5.6,17.55,17.175,5.325,9.725,933.0,910.0,339.0,320.0,1030.0,1041.0,328.0,581.0,13.0,17.0,13.0,13.0,18.0,15.0,14.0,16.0,-0.3742460206946701,-0.27180918942161675,-0.2296689184559864,-0.1803935548097656,-0.20715384196650943,-0.08278441507741156,-0.1741913342093321,-0.23197020738770271,-0.35134464638713886,-0.12843518122045092,-0.10782835514783523,0.019004938014236385,-0.24247295796898513,-0.06391110312338703,-0.10787677747955694,-0.29959834908977345,-0.24279546347627695,-0.23476510722662391,-0.23968376958664828,-0.25930819033074276,-0.6321046017592901,-0.5141851088204612,-0.4490985434129499,-0.4120048580841972,-0.35563183805345167,-0.4069692563850209,-0.21965257189583873,-0.15382781031845202,-0.18001070924959342,-0.14113059602249134,-0.1569100369016607,-0.20823882220436737,2
13.375,14.05,5.325,4.35,15.325,17.725,5.3,8.125,875.0,823.0,289.0,202.0,960.0,1135.0,309.0,541.0,20.0,18.0,10.0,9.0,17.0,17.0,15.0,16.0,-0.5480431925626453,-0.5148944751717157,-0.36699666393926683,-0.24131206947600983,-0.06653843114901976,-0.1314651043019548,0.035005177730398886,-0.24254615951011493,-0.12281675272364724,-0.16260386658985848,-0.10674509331596167,-0.09676124939016645,0.15968494232952699,-0.3136826222761314,-0.19749675020895727,-0.17225304269560035,-0.27470240410298574,-0.1596298960060284,-0.05771550002500701,-0.251196780224394,-0.5533100254453911,-0.2640471080776644,-0.3092595260033444,-0.3327269129151989,-0.2156156328242722,-0.2364739533112695,-0.18802168980695033,-0.045814197300060734,-0.5092970978699206,-0.4493751581587581,-0.34213583903045186,-0.31034991625204916,2
10.5,18.95,4.375,4.9,10.05,16.025,5.875,10.525,742.0,1288.0,285.0,261.0,707.0,898.0,347.0,688.0,20.0,22.0,17.0,13.0,17.0,16.0,17.0,17.0,-0.7680822139513668,-0.5117754978640998,-0.414793965506858,-0.22602828474274675,-0.6671820903641462,-0.4759543755144818,-0.33470475773891284,-0.3081187771901379,-0.23787926512280802,-0.2940348086959961,-0.18459876170963663,-0.1843190391607858,-0.24924451210081544,-0.20644538493602277,-0.45319597648251114,-0.3605984792299582,-0.5226487556185547,-0.17716144989439483,0.07050031588701233,-0.02415961065469707,-0.10056723599435136,-0.23005774161124018,-0.3255353755881471,0.033566538014739175,-0.24837878883718367,-0.1278525131498901,-0.21021063085331346,-0.31760434156459666,-0.2362743928374171,-0.06291665617623211,-0.01574117976159234,-0.4587295819373838,2
9.55,15.75,4.225,4.225,13.375,19.1,5.525,9.675,645.0,1043.0,244.0,249.0,811.0,1162.0,331.0,615.0,20.0,18.0,16.0,13.0,18.0,16.0,14.0,17.0,-0.3930405965835877,-0.013517472624691008,0.059868219981463563,-0.09431668698128992,-0.6356636778631345,-0.6633852080723409,-0.3784224655990372,-0.4287335525460078,-0.5129316274101237,-0.3611219127811236,-0.34098853742588225,-0.11049011310467172,-0.2897141226010763,0.05184293529453055,-0.2705624327802404,-0.49924498883498086,-0.34562218685061363,-0.03319849479828054,0.019453659001604763,-0.1446369602648491,-0.33462022956869447,-0.22542440263345978,-0.0795880485480024,-0.11008779046522965,-0.20812947498464338,-0.33387838924826674,-0.02535322940295228,-0.3135361641328206,-0.25486923383612525,-0.021364839705619407,-0.2435468840832152,-0.15475862617470884,2
8.425,14.525,4.425,4.1,16.725,21.5,5.475,11.775,477.0,899.0,225.0,253.0,1084.0,1321.0,327.0,823.0,15.0,15.0,12.0,16.0,20.0,17.0,13.0,20.0,-0.14001266229796402,-0.058600107602278295,-0.2705231437289147,-0.3075242688202267,-0.4642850498365568,-0.38604538846996767,-0.2750041962199679,-0.3904715341588959,-0.2571849657487359,-0.4742656240062227,-0.4612049688624237,-0.16465616709909234,-0.48648269603301464,-0.5421610481051166,-0.5701233448047571,-0.19152708780538608,-0.494052116515131,-0.21047133355941874,-0.3039110361425587,-0.23522712286095782,-0.5317710466641334,-0.4095245782643679,-0.3453760254124798,-0.395651684520976,-0.3782611027550997,-0.1832005210738236,0.01990381506962711,-0.08224607185167279,-0.40940387939497747,0.0034475218668395067,-0.24187483251927808,-0.3056429353303815,2
7.6,13.2,3.275,4.0,13.575,16.175,4.75,9.15,473.0,944.0,189.0,230.0,907.0,940.0,303.0,623.0,16.0,21.0,15.0,16.0,18.0,12.0,17.0,19.0,-0.27540931704468286,-0.17902014235522287,-0.21606161762301948,-0.10858183678211178,-0.5321409112251256,-0.15846861589052255,-0.2092254986874174,-0.5229342244294796,-0.2590671162058173,-0.1754467797553848,-0.15468348271675977,-0.4317333289751888,-0.28975266485619905,-0.3444994018991425,-0.22553383869658616,-0.22731260690621455,-0.5999951388811414,-0.4291950936735942,-0.3268402177864307,-0.2997072123940847,-0.3463303706440185,-0.4288277703571573,-0.2945164758408181,-0.19435782338652002,-0.2859207694892,-0.008868655819276277,-0.2908880436800518,-0.06608364915230962,-0.4563061691622018,-0.38324920197980883,-0.13521537202853626,-0.3142595897060883,2
8.625,16.1,4.0,3.425,17.025,17.175,3.875,7.975,567.0,1040.0,254.0,219.0,1035.0,1092.0,237.0,485.0,17.0,19.0,17.0,18.0,15.0,15.0,18.0,13.0,-0.43013721291245466,-0.43979197301839995,-0.2081996000094322,-0.051634517983240896,-0.7254669884020752,-0.6442677920425007,-0.40128255600643714,-0.29229510437878503,-0.7165569668955611,-0.4956698706061158,-0.2173444375250329,-0.026967629821936942,-0.5080318379174764,-0.36620787553211553,-0.3776562199544068,-0.4429332187333296,-0.6706625489324437,-0.4567324262656176,-0.5978662190900982,-0.6258148939303216,-0.42814964700778185,-0.19887641885299845,-0.3650503302490566,-0.416172973981063,-0.3077539603212658,0.028262955230447282,-0.08229582750928675,-0.006686563958578629,-0.35295191813133475,-0.1698426566801795,-0.04315988902877293,-0.13768721381469678,2
8.875,14.775,4.25,3.8,15.4,16.175,4.0,9.15,610.0,1008.0,255.0,235.0,782.0,936.0,268.0,611.0,22.0,20.0,15.0,14.0,13.0,11.0,19.0,19.0,-0.7191888705638808,-0.32044670441240697,-0.14597187167461964,-0.06771713742494478,-0.8660709701565903,-0.5883097447107013,-0.4161172659229326,-0.30528684664421946,-0.37412408118657053,-0.29204135844569684,-0.16520400283761405,-0.21536704603117207,-0.38049787081392633,-0.1102581692290079,-0.18571213864852384,-0.46690540350176796,-0.4750353803691527,-0.49890883703175504,-0.5614324269882686,-0.4536115866803264,-0.31505096523021603,-0.26559648347469955,-0.37902355703511353,-0.32425879878311076,-0.35776731817324786,-0.09047611936341698,-0.043548059629430716,-0.5039123944904007,-0.4913371002723901,-0.41694382945083636,-0.2560524739189268,-0.2159809249135695,2
10.525,15.2,3.925,4.75,16.775,22.775,3.9,11.35,687.0,909.0,277.0,281.0,1044.0,1382.0,241.0,771.0,14.0,13.0,19.0,12.0,22.0,19.0,17.0,17.0,-0.293530989839512,-0.1851024977982306,-0.24049514859816895,-0.2648580095341187,-0.18644017927516573,-0.07069634859789625,-0.3965857195216168,-0.09349300048614995,-0.6960632446024506,-0.37041245244420873,-0.23764848719505405,-0.19794177335818092,-0.43094248280067055,-0.3335919816428554,-0.41815999021398825,-0.4646426691581251,-0.46236873678240625,-0.24171179629877923,-0.49962726346316155,-0.17154025189311262,-0.5375044180201065,-0.39584246844263343,-0.2646042897631075,-0.13186075874714215,-0.4625031018726985,-0.3567980584501212,-0.34629323755022706,-0.40294321788513676,-0.4013709431157737,-0.13643581564899943,-0.16634793525268574,-0.09525205161957591,2
12.525,17.725,3.95,4.05,17.1,21.425,4.7,12.35,862.0,1093.0,275.0,244.0,964.0,1334.0,307.0,808.0,21.0,15.0,18.0,12.0,12.0,15.0,18.0,20.0,-0.5258484465000028,-0.29326798679254984,-0.2722043707073291,-0.16925969930507875,-0.3319362364041138,-0.07110701232800727,-0.3011674524212074,-0.3308183191803887,-0.5156445375810526,-0.08521846249062795,0.3075195867492439,-0.010996105258332165,-0.15268039640319048,-0.3907241070008996,-0.1341017223856918,0.009188848555012332,-0.42780850158246514,-0.6970606988701334,-0.3556013258479379,-0.5656862811999497,-0.48926270619465456,-0.5083147552762494,-0.09939979139568945,-0.023277747687206963,-0.4299433958861649,-0.3178410999549705,-0.19809183128376978,-0.35526233129539947,-0.3471210469336438,-0.05313712870770988,-0.2333566682678574,-0.28962941386625396,2
10.25,16.875,3.875,3.525,9.525,17.225,4.6,9.625,665.0,1113.0,243.0,208.0,595.0,1056.0,295.0,651.0,16.0,21.0,15.0,14.0,19.0,15.0,15.0,19.0,-0.5062314488847056,-0.10796723204410062,-0.11257080592984857,0.001635354901291313,-0.5295711480466796,-0.2638980368757497,-0.22736220188582484,-0.1115877108266673,-0.4443989348603285,-0.07510773069803663,0.3083777326739063,0.05214684520299038,-0.3585544072020805,-0.423289573084671,-0.41207246309313234,-0.19495953802681137,-0.18508451090635425,-0.0323172910856108,-0.1639087782814847,0.05891685593585573,-0.3395857010723376,-0.20133615501520766,0.22258903643051767,-0.002795804526263905,-0.6136663315224431,-0.6018863718338676,-0.2672239243020755,-0.34270652228468856,-0.47251875599921916,-0.1832400895880662,-0.224081644627422,-0.24861835745144215,2
11.8,12.775,3.45,3.925,17.25,22.325,5.975,13.225,760.0,762.0,221.0,229.0,934.0,1345.0,414.0,916.0,22.0,15.0,18.0,16.0,15.0,13.0,20.0,24.0,-0.3638557423425156,-0.11231740711163722,0.14817495188571445,-0.07764823695243885,-0.19980601903867706,-0.21114914810019048,-0.17420005008828596,-0.08491509296797878,-0.323638516301986,0.04593494760272867,0.17681920675689897,-0.0525796194145851,-0.2744259858454331,-0.15958271852863462,-0.09040793337270643,-0.31236604916337024,-0.3755787813463095,-0.5077276103159044,-0.31551687507068404,-0.3852264312604687,-0.22600382522359713,-0.1790363895842687,-0.029111296885071917,-0.1685164822135785,-0.4310227599048018,-0.07830719839968266,-0.03552847072081895,-0.34265547637826366,-0.552358590186795,-0.02852779177915844,-0.01830622825994276,-0.1773975552917068,2
9.9,11.4,5.275,6.1,19.975,23.4,5.575,12.4,672.0,723.0,343.0,348.0,1228.0,1461.0,360.0,817.0,17.0,17.0,16.0,13.0,18.0,17.0,15.0,19.0,-0.3956389381827027,-0.3179998809933173,-0.0961076403938706,-0.09383510218655898,-0.17115594685115088,-0.10906904889397755,0.10293258513672067,-0.02616834029037884,-0.525107264895651,-0.3758670830313708,-0.3887967343597837,-0.10465839456994236,-0.09524446413600053,-0.32930669561437315,-0.4374712365399613,-0.19105113245620453,-0.14024678492284645,-0.3676835273221846,-0.05086189070355342,-0.2609858732727986,-0.42345625789335906,-0.30215784191938966,-0.2297068810653621,-0.2469919976703871,-0.4200532140344896,-0.08093117661700255,0.07574498833574446,-0.1677953483832683,-0.5353945408852547,-0.12842061286663684,0.03809022125368927,0.03941297848452641,2
7.875,11.675,4.475,4.425,14.6,17.825,5.325,8.8,510.0,722.0,255.0,259.0,988.0,1142.0,355.0,550.0,14.0,16.0,12.0,17.0,19.0,18.0,22.0,15.0,-0.28628882717710635,-0.20442359380166358,-0.0764670803214861,-0.03824600673180516,-0.5521324791559475,-0.5160195193184623,-0.5555425631020323,-0.5901423536067687,-0.2993049748940189,-0.24916793435420628,-0.24040967584075273,-0.35250142213094443,-0.07840255236330727,-0.4359506255705386,0.0325719789001702,-0.3203335508094794,-0.6041998533991021,-0.326868631541951,-0.11620531605147852,-0.21373551602951563,-0.394668071641644,-0.1709094794686181,0.2749111090336238,0.08520365933001253,-0.5647456755116295,-0.17379176968925428,0.09891488453029165,0.08101220642248713,-0.4909731931192806,-0.3444451662655379,-0.18777355363283052,-0.1495252732070928,2
8.15,12.925,4.25,4.05,13.125,17.7,4.4,7.5,463.0,779.0,276.0,199.0,782.0,1174.0,278.0,477.0,16.0,17.0,18.0,8.0,13.0,19.0,15.0,19.0,0.04774473389559188,0.007645803817086167,-0.05744120530853462,-0.22678349729629435,-0.25583573468897874,-0.10474822023391335,-0.2592551675475071,-0.2467421729787614,-0.3768264143864584,0.15240341249713196,-0.1237395479132917,-0.09532377681247715,0.04068268872192934,-0.017011804671239184,-0.3253808474018922,-0.17963833641479485,-0.1188997359045251,-0.1603047698217649,0.26925268921509093,-0.043131664912313995,-0.39329212177835193,-0.2141798707717506,0.04353469271027437,-0.039247755495437735,-0.40330196673203167,-0.004131426647442062,-0.10898859680077928,0.024210054498564944,-0.44648585722416273,-0.2461921243140126,-0.19812537552898798,-0.12116487674919003,2
8.325,10.2,3.825,3.2,13.425,18.075,4.55,6.75,513.0,711.0,238.0,156.0,803.0,1175.0,262.0,363.0,14.0,15.0,19.0,17.0,19.0,19.0,15.0,13.0,-0.3292773920107339,-0.4238018072199231,0.02979805334994272,0.054447072113349884,-0.8556670916264841,-0.7846688638634367,-0.3600385225426268,-0.11504799433160498,-0.6181696502692333,-0.2915770241577899,-0.4297177512481589,-0.16200922330901318,0.013198196328473933,-0.1014917678582213,-0.25183850021232573,0.02415575484047935,-0.29063684862089767,-0.15212540661795118,-0.19580988936716884,-0.13669781465827893,-0.5249534008874999,-0.3313705768968424,0.000844977347667284,-0.007959061500635092,0.040014134462025654,-0.4071205708064336,0.22439450909197714,-0.47493346643447504,0.006018086259674485,0.20734168687880655,0.0470575377721559,-0.1351042562440814,2
6.75,10.075,3.975,3.575,12.35,14.7,3.925,6.95,379.0,682.0,274.0,187.0,732.0,977.0,245.0,455.0,14.0,16.0,17.0,9.0,17.0,21.0,19.0,21.0,-0.14011686263820766,-0.3194594774579949,0.13820338372570234,0.14382062677117766,-0.5316933494298284,-0.41824903355815185,-0.26413062559347966,-0.2387737396490314,-0.5295622610524247,-0.1353461833967042,-0.3876288090664232,-0.1851441277296389,-0.06638760539232677,-0.1370639783372617,-0.01063947099806776,-0.30422171027438427,-0.2862599040658311,-0.12004016387910695,-0.05901668569938703,0.021472081373887893,-0.6121264418068971,-0.48870827955255197,-0.22310094647306117,-0.08468028971786,-0.4566521746052278,-0.18854544597282563,-0.23521941845206956,-0.2156370617976258,-0.3178927323466159,-0.08514222354375119,0.12305242796489202,-0.1284340373632411,2
6.125,8.925,2.8,3.1,12.175,21.225,4.95,9.175,382.0,496.0,169.0,164.0,805.0,1338.0,298.0,618.0,15.0,11.0,8.0,17.0,20.0,18.0,14.0,17.0,-0.18229549094350542,-0.3621232505016267,-0.027973724429601707,-0.2008458966409639,0.06557590475054682,-0.333415271416197,-0.15990833036325847,-0.21234048866960797,-0.22624116727841426,-0.16486692327208632,0.01505931604363303,-0.21284356483644373,-0.12750919517660994,-0.2758886245130224,0.0007934273415733151,-0.29095540916553897,-0.4141793560080215,-0.17179809446834302,-0.3029722107501082,-0.5037110436260128,-0.405956025989037,-0.3492671157657959,-0.24442770340321424,-0.1738221891621972,-0.1966228506081415,-0.14101587348233965,-0.173373346139987,-0.19754438623980877,-0.5146581391391901,0.15432593570708356,-0.04912082506427965,-0.37770519966526295,2
5.9,13.15,4.125,3.5,13.575,21.675,5.075,9.425,360.0,836.0,271.0,221.0,943.0,1467.0,305.0,568.0,17.0,18.0,19.0,16.0,19.0,21.0,11.0,17.0,-0.25047284923137997,-0.0833086179843697,-0.16952862324042714,-0.07000388022478686,-0.23826573070138818,-0.29284292296112474,-0.26220083166770186,-0.4107606012469753,-0.572806520684313,-0.1018673481165636,0.05777827478790154,-0.09735358674233607,-0.4437928538769545,-0.2245539198488495,-0.0030612482965499494,-0.20257086099133736,-0.5441020747017699,-0.2503072118284963,0.02750426810962229,-0.11429593849499249,-0.6058051389269585,-0.6002078229269365,-0.1921150948833523,-0.14307524094807866,-0.2793501882634632,-0.29046810378953974,-0.18697208365697568,-0.13434695298121765,-0.3887549835258076,-0.23310346659998554,-0.24821070308663343,-0.2191140531872528,2
6.275,11.4,3.45,4.225,10.625,17.45,3.9,9.375,368.0,715.0,226.0,280.0,654.0,1182.0,219.0,611.0,12.0,19.0,13.0,16.0,20.0,22.0,14.0,21.0,-0.12229328981417875,-0.1297297019473919,-0.19619542553553715,-0.15197426384894377,-0.31165826705549265,-0.4036967141191372,-0.24665003202041716,-0.02187460463361824,-0.4368893867442576,-0.3209787512120743,-0.11802300553790422,-0.49138128083444477,-0.6432792125361886,-0.4913305642332035,-0.11679735067694483,-0.21730277905852105,-0.25025863230140044,-0.07618669796653765,0.2281805613419427,-0.09740739733736585,-0.28675681016762533,-0.21335617720677744,-0.148336135710522,-0.2253980982962441,-0.08325241710338567,-0.14913553756985146,0.02123068019235158,-0.291508271546449,-0.3287058155130972,-0.08383254990667117,-0.02345763785528581,-0.12472478080162042,2
7.45,13.5,2.9,4.0,12.125,16.45,3.6,8.05,477.0,945.0,174.0,247.0,849.0,1099.0,232.0,509.0,17.0,26.0,16.0,11.0,24.0,24.0,14.0,20.0,-0.5409226122973473,-0.27564623300002383,-0.18402134496117417,-0.18423386312862947,-0.704583814883784,-0.3881622782938871,-0.44452200881424286,-0.19372899561301143,-0.497365177885804,-0.49546881488284567,-0.4240524184381933,-0.4610794023352188,-0.39853997576199596,-0.31419276472697444,-0.4148485215803831,-0.34219661379220506,-0.8294567489455585,-0.38907127974207467,-0.1542014748047873,-0.08884652016208973,-0.48905382504743,-0.16763241680443916,-0.2573726999192884,-0.2108430886434699,-0.5450623492799103,-0.32121314766013337,-0.21307097964612912,-0.04978417974534466,-0.11418528056016536,0.029752335177810497,-0.03207736326580393,-0.3653676171935287,2
6.35,10.025,2.8,2.825,15.2,15.15,3.85,12.775,421.0,656.0,149.0,203.0,1112.0,890.0,246.0,847.0,14.0,18.0,15.0,26.0,22.0,16.0,15.0,20.0,-0.32093644447428693,-0.1510575800146057,-0.021374745138018514,-0.32182578295951336,-0.4371763116290308,-0.11238482751249394,0.06182258420801596,-0.02722810694949459,-0.14807012934176247,-0.30254461947277045,-0.19980417437095604,-0.44458406695353886,-0.25957951461423273,0.3182548954373687,-0.28798115914367156,-0.2640284207970665,-1.0236864609917293,-0.6632146304551719,-0.4367318084955583,-0.13312352098416355,-0.14813977645505924,-0.15174665395305234,0.09934994745222418,-0.04024250927018307,-0.49151286916952663,-0.14323034697191145,0.00866824381354054,-0.21426232637756726,-0.556616041629558,-0.35116621151174293,-0.17429026909956968,-0.2214378750694723,2
6.15,9.975,3.25,3.925,11.825,18.85,4.3,11.2,413.0,640.0,196.0,254.0,744.0,1043.0,288.0,779.0,16.0,17.0,16.0,17.0,20.0,14.0,17.0,19.0,-0.29228955956150376,-0.28906002688323457,-0.05710380499634971,-0.22907397411709013,-0.25187640299176933,-0.46075167472808026,-0.18395060505252056,-0.35522213052177104,-0.20955506538890617,0.017322730205242252,0.105649073596753,-0.4036618472337856,-0.32364151962148746,-0.1396341362316294,-0.031978898233008354,-0.2505378649187987,-0.3191779643775555,-0.14943747973793683,-0.04008818644366981,0.07571871573063697,-0.21210330605673797,-0.2744097979077331,-0.061278149724615524,-0.20715435047205122,-0.3060347192091118,-0.2803448430592333,0.023319401301757626,-0.1274365291773499,-0.5905800262523325,-0.40201485429437134,-0.05924491863256272,-0.07239131578586076,2
6.35,7.8,3.4,3.7,11.65,22.8,5.05,9.725,400.0,536.0,212.0,237.0,836.0,1543.0,308.0,616.0,16.0,22.0,16.0,18.0,17.0,15.0,12.0,17.0,-0.36705933183690864,-0.024243240419486122,-0.181256734378982,-0.34705157526148045,-0.4420846775462272,-0.255925649264852,-0.36214353497416146,-0.13737257718481177,-0.5114575147233982,-0.47482168792311513,-0.12547629280743236,-0.3606665029297063,-0.3884822969055029,-0.1966887069266413,-0.10437188995448797,-0.20354545072015676,-0.5735691188933542,-0.13878772104881962,0.24382505829204026,0.18105143679749133,-0.5187853916348251,-0.41568132720239365,-0.24492845936690064,-0.29205069156592434,-0.23733412316640495,-0.3384213291306122,0.057057342475887556,-0.1389100777149599,-0.4987716916614429,-0.3282103312261113,0.0016763378262585366,-0.09402453781328117,2
6.9,9.275,3.025,3.7,11.9,18.25,4.875,11.625,492.0,627.0,196.0,235.0,902.0,1215.0,273.0,784.0,18.0,18.0,13.0,15.0,21.0,17.0,15.0,21.0,-0.557629592523377,-0.08567209163288458,-0.045547743056918645,-0.09729203762795957,-0.7245456603995379,-0.6127230535234114,-0.4724402505730732,-0.3124583213377842,-0.42039655139584725,-0.32117562598169486,0.10627253557229228,-0.19735098839430537,-0.6744802693658569,-0.49688198962581387,-0.5551263358002836,-0.5162067286226032,-0.7200393674031487,-0.24546826488974688,-0.47150029248470465,-0.2753212978669247,-0.41737321200859157,-0.07179366820934298,-0.25866050112514005,-0.30548572909629046,-0.2675242297419127,-0.1657346434153093,-0.06419389080911737,-0.33367269589915804,-0.4233140820642804,0.10150790098922975,-0.06638478788147764,-0.25800784443556446,2
5.4,8.875,2.65,3.125,16.15,20.275,5.4,8.875,350.0,601.0,175.0,175.0,1181.0,1329.0,369.0,585.0,15.0,21.0,10.0,14.0,24.0,19.0,17.0,13.0,-0.3031038847024198,0.033809904425475296,0.03604676533626256,-0.31001444538683237,-0.6020303571075162,-0.34349174096984086,-0.1722136755082936,0.034667065435206194,-0.4460913941185548,-0.04202836703288878,0.25407799780932294,0.011947094657056128,-0.3866905679033543,-0.36931226876303264,-0.24415404711075386,-0.39731741726855185,-0.6693417060190123,-0.2772960890255261,-0.4018914641328642,-0.2964299015016572,-0.5923196509359189,-0.19688684928562966,-0.25827701499743383,-0.254590883940524,-0.6436994794661975,-0.05362047825926502,0.02909948141537812,-0.1333291745990321,-0.37384950091923375,0.03944735289200215,0.2319100858323923,-0.13369725106483704,2
4.725,6.2,2.4,2.75,11.75,16.1,3.75,9.875,307.0,420.0,156.0,166.0,759.0,1038.0,263.0,663.0,16.0,17.0,14.0,18.0,17.0,18.0,17.0,19.0,-0.450977649479959,-0.054069162680706405,-0.0228820319848111,-0.11330030767841323,-0.4598213157913143,-0.025018392495965273,-0.28949126545306886,-0.2991505335867888,-0.6140010518110893,-0.35796682109929295,0.15177664100238886,0.11276111974686273,-0.47917598430099356,-0.6705249835114327,-0.23732226568761833,-0.3411119568623117,-0.6766548985881184,-0.5447642263616307,-0.2606017356196126,-0.2011687778736262,-0.45876934070856873,-0.1863212262402204,-0.29301443179791353,-0.19510297678223362,-0.668028876546205,-0.2593140961799914,-0.10617916168416304,-0.18921912641878594,-0.5390398817444794,-0.2656565997747854,-0.38690554771320723,-0.2359051311210843,2
7.0,6.975,2.175,2.975,10.8,16.55,4.85,9.625,485.0,477.0,116.0,202.0,711.0,966.0,342.0,567.0,18.0,17.0,14.0,16.0,17.0,17.0,19.0,14.0,-0.3807708162442576,0.23654864238910644,0.09737654982468551,0.00449718984674288,-0.3998194546558172,-0.007751674233661645,0.0727427851582745,0.0059824684920501865,-0.13815966048311443,0.011611335489268487,-0.25785216213577333,-0.18425471227749393,-0.4311067147866968,-0.3150228296334242,0.13890530460840436,-0.07833606228937345,-0.5686197413113793,-0.3605307969536136,-0.5038200136817312,-0.29625254663934014,-0.19303566388375865,-0.07659359759923169,-0.20166323159935945,-0.26320257422866017,-0.4675660000052101,-0.284828142277789,-0.20935745309817258,-0.393821243229994,-0.3512964834038804,-0.01675190740910535,-0.3845206814688923,-0.37855620716686267,2
5.7,7.375,2.5,2.85,9.15,17.325,3.7,7.075,393.0,441.0,144.0,177.0,556.0,1083.0,242.0,440.0,17.0,13.0,14.0,13.0,16.0,18.0,19.0,15.0,-0.5287274429065726,-0.15716667802558976,-0.4691710800334352,-0.19389142572663673,-0.35433910476493957,-0.1703111696067548,-0.2998713110107652,-0.13172167026041884,-0.231537813614508,-0.13706946752898747,-0.05911578136007419,-0.26424608544652567,-0.30156826604622605,-0.42652627511409485,-0.1957110968844726,-0.3632524909330259,-0.18732959449286407,0.026042817898777715,-0.10952963839667838,-0.2862945451419622,-0.13268779988067933,-0.42544796863255413,0.04746259806761463,-0.23978750591993098,-0.2415238281029881,-0.03112526915430277,-0.1570283929675894,0.08527788783868402,-0.23759942966564632,0.0027712663117537397,0.05606572196560244,-0.08117693900879366,2
5.125,9.45,3.15,3.325,12.15,21.05,4.5,8.825,316.0,542.0,175.0,204.0,844.0,1209.0,262.0,566.0,12.0,17.0,12.0,15.0,16.0,15.0,18.0,17.0,-0.2725282817811197,-0.10135604999533586,-0.33044537664642126,0.08388675641116981,-0.20847253042024522,-0.31358060425076767,-0.2641074799431087,-0.13889811762846346,-0.13440098595933414,-0.31676733723370215,-0.19011985047976773,-0.2380950276659913,-0.46699648338128125,-0.5404285737121398,-0.3886824119164527,-0.30746743823849143,-0.3599069975939146,-0.4763363583989039,-0.18283690768252836,-0.17576553837850123,-0.3518929766001955,-0.6485324657416803,-0.31460237722988177,-0.3682553890726542,-0.2889667791256223,-0.2689716870770218,-0.30399499167975075,0.05347404229791479,-0.5033364704363973,-0.29438910793702794,-0.3426648142411147,-0.33353460754482583,2
10.85,18.925,4.375,3.8,13.725,25.125,5.6,8.675,728.0,1197.0,256.0,208.0,882.0,1503.0,336.0,530.0,17.0,18.0,18.0,14.0,19.0,20.0,16.0,14.0,-0.6393170644892103,-0.15661363284555868,-0.3931116171226621,-0.5845668044807765,-0.5062399027471803,-0.5086412830807573,-0.027537810906916625,-0.33811086138900903,-0.29124336691645375,-0.04717899200924298,-0.10463656074051944,-0.2877067089489623,-0.4713996433924704,-0.4363340436509666,-0.36928381160111584,-0.40789782578257755,-0.40360312489900446,-0.35378532762230697,-0.4308442052596176,-0.1357985628499197,-0.5586184579608205,-0.7242129600728594,-0.4994258888849761,-0.5655267571840863,-0.36681570950112824,-0.45088833772302567,-0.40730364734400104,-0.24015282290602663,-0.2282740460268528,0.04771810070561578,-0.20061907326947423,-0.21557187633342628,2
14.225,18.425,4.7,5.475,12.175,28.55,5.925,14.55,836.0,1102.0,310.0,286.0,763.0,2038.0,353.0,952.0,16.0,16.0,18.0,14.0,19.0,20.0,18.0,20.0,-0.41045122154303887,-0.37097869812390294,-0.32193738943125083,-0.23390902906935557,-0.29952553353350614,-0.35332730882708235,-0.13313961704971006,-0.2655871888037256,-0.2709198708400955,-0.07669747205761138,-0.06979151088503877,-0.30891427685596856,-0.28342460253848234,-0.41973833640892855,-0.2501499191461277,-0.4240825964502878,-0.3260432372199879,-0.05124587842300007,-0.3166509238802276,-0.24588866144067917,-0.6861373567035036,-0.40087641133528756,-0.36221162351418607,-0.3309574505739778,-0.4045716662398506,-0.3558741653807136,-0.14793389757163727,-0.43958011893152943,-0.4617043849332178,-0.24029579546446497,0.17191520272045374,-0.2419527873910415,2
14.05,15.7,5.575,5.65,16.525,23.4,6.225,11.125,873.0,1069.0,365.0,359.0,1149.0,1575.0,392.0,680.0,14.0,19.0,17.0,17.0,19.0,20.0,16.0,15.0,-0.3911512298514069,-0.26227121943411047,-0.25000985381774077,-0.06748396879641115,-0.5465038723191069,-0.28855843843364287,-0.23604275832799326,-0.24598431503944715,-0.398604559170109,-0.2865893569388796,-0.19952528807497155,-0.4123880453202357,-0.6871280271983997,-0.43671976516135297,-0.09809086037564695,-0.02456863347789448,-0.565551406787276,-0.021858510759532497,0.15594085538877567,0.03357546311153032,-0.5026130058833469,-0.14475334962304923,-0.19565128173770766,-0.3327261705857044,-0.4573201015194797,-0.22552557898726977,-0.2570497714257197,-0.3629096117851147,-0.3355945954864655,0.0298252228971131,-0.09602633703270415,-0.09569383456376836,2
15.7,18.825,6.4,4.25,17.775,22.75,7.25,10.575,1044.0,1211.0,453.0,256.0,1166.0,1378.0,473.0,709.0,21.0,15.0,15.0,20.0,20.0,16.0,18.0,16.0,-0.5802428306272027,-0.3396906506160636,-0.2560562326373364,-0.11266732232901228,-0.4032558965467204,-0.07833415428652932,-0.05203248703791988,-0.20625212813886104,-0.4738863778319223,-0.3086686253427623,-0.103600010153852,-0.3560785289611428,-0.42062940130726906,-0.24553211502681405,-0.4594486138555071,-0.3392428828429847,-0.43881105265831394,-0.30579498963918855,-0.1837479952780794,-0.33489919222812486,-0.4224704155815368,-0.316148572466083,-0.12772701127899866,-0.41454124910812734,-0.6544241654845551,-0.6335954668334467,-0.42464702592717946,-0.6456791593402723,-0.4566155268603314,-0.2216780991039896,-0.16975407709025173,-0.16804891298143337,2
17.325,21.6,4.925,5.15,16.325,19.625,6.0,8.65,1104.0,1527.0,327.0,296.0,913.0,1221.0,374.0,540.0,16.0,21.0,16.0,17.0,17.0,21.0,19.0,18.0,-0.5150776641635161,-0.3827341466668141,-0.20025317697826817,-0.07074295740835225,-0.6776394162012892,-0.5577595029829517,-0.46954759159828047,-0.583663285208857,-0.6257253740174447,-0.2573984733051272,-0.4145074909547422,-0.3493174643343744,-0.41888591036196815,-0.2365084292831212,-0.6747597941541947,-0.4468876018093193,-0.2940948696068639,-0.46733700240831605,-0.48862403021039685,-0.11926894155002096,-0.5142230191651298,-0.3978755900723979,-0.2545069523335674,-0.06261801918769462,-0.46626316640796345,-0.2569499895739501,0.17513406226091005,0.05216391138264687,-0.29363436721790526,-0.21856053684454285,0.037069416868534766,0.10336501300580045,2
17.95,18.775,5.2,4.4,18.7,28.3,6.3,11.475,1241.0,1207.0,323.0,267.0,1103.0,1907.0,411.0,712.0,23.0,16.0,14.0,16.0,19.0,21.0,19.0,13.0,-0.7407156060134951,-0.40352388853405713,-0.22485833237421918,-0.013445074893536578,-0.3912061958893286,-0.0758372540424903,-0.14280834565349296,-0.2848221174435747,-0.4283322505986077,-0.2306847483603397,-0.10253886889405717,-0.10179049871479079,-0.38726301684954695,-0.4845210500597693,-0.39427513306442685,-0.4905782115795287,-0.3779209335265573,-0.34225918744727374,-0.3193165623416306,0.003197296419407213,-0.6995015560126997,-0.46761371804489016,-0.27030546916538356,-0.13753244425640235,-0.4019660271292117,-0.20413582478973855,-0.1295999389271634,-0.24746995733937635,-0.41795558590535,-0.22880957405367908,-0.18521803029223394,-0.23637539717040887,2
15.275,18.0,4.875,4.125,12.025,23.525,5.1,10.825,1118.0,1334.0,302.0,214.0,705.0,1679.0,321.0,722.0,23.0,20.0,21.0,11.0,13.0,17.0,17.0,20.0,-0.5924052217467602,0.08113655233065997,-0.04426296189553691,-0.05742547585103209,-0.7618222054489228,-0.47724874223516955,-0.4173527027811984,-0.20712217396593993,-0.5492487179776803,-0.13540687814608254,-0.43065367279241584,-0.34312925027309465,-0.3177267836888439,-0.5678977175895198,-0.30624620981476813,-0.41260882062439375,-0.5280172868559001,-0.4021541737347509,-0.35920656279234586,-0.19529850996724177,-0.4962356124548168,-0.2356433787710539,-0.43329034069691574,-0.2137823164075341,-0.23561387044790613,-0.03468538473455606,0.06887277334444401,-0.23744157725267628,-0.3987717454061537,-0.12804361539909878,-0.0007144374278773149,-0.16905355720341853,2
13.275,11.4,4.05,4.325,15.95,19.45,5.1,11.3,878.0,739.0,225.0,245.0,949.0,1259.0,292.0,708.0,18.0,17.0,17.0,13.0,18.0,14.0,14.0,17.0,-0.5161112413933916,-0.14450842106186165,-0.09842192686995203,-0.0488841465063643,-0.3001120238910941,-0.26973978013543504,-0.13120940513792817,-0.31450373962420597,-0.1774379899893245,-0.3355482686652801,-0.06366383248779581,-0.18397356805564688,-0.20013214972329166,-0.2719789470180005,-0.10171065218785483,-0.026609161688198227,-0.5214874128572726,-0.6304058211645803,-0.5114852728889178,-0.4190285610042862,-0.5115080936361233,-0.4014344845635778,-0.48989710457354224,-0.18658473758133062,-0.4160579559864642,-0.47794801183348234,-0.29222265267349357,-0.16469947207977118,-0.3671677724266331,-0.34231013282626843,-0.2805199255141488,-0.3832146203666992,2
11.95,16.65,4.65,4.125,15.675,16.525,7.025,14.75,765.0,1093.0,298.0,266.0,1026.0,1030.0,411.0,895.0,18.0,22.0,20.0,16.0,22.0,17.0,15.0,18.0,-0.4971241450089608,-0.27812008538568134,-0.42601153073320464,-0.26682086451610604,-0.3824714291692862,-0.07234221629827073,-0.1033831249958854,-0.2379987300855181,-0.5212511044327616,-0.2643850362929842,0.1585246686364546,-0.11404280372260743,-0.4777537862324294,-0.4385868929172535,-0.12241348710616275,-0.2170160214856006,-0.5513591178263266,-0.4472184758693159,-0.1674263431770414,-0.2405721839562673,-0.2359481256140295,-0.27316513524997693,-0.0582871834315327,-0.0018523020235216283,-0.41799165724324333,-0.2793048106362434,-0.5547541255529971,-0.19888658444772322,-0.389627088487242,-0.28246052937634075,-0.49693663050210246,-0.30932955902559117,2
15.0,14.5,4.775,3.775,15.925,20.525,7.725,15.4,1038.0,950.0,350.0,216.0,1026.0,1213.0,448.0,940.0,16.0,19.0,21.0,15.0,18.0,15.0,17.0,21.0,-0.70815594563186,-0.3667501824343226,-0.5060837352955179,-0.3988690700621856,-0.4897772822266419,-0.1825657524490192,-0.16913211245230136,-0.3257727705553787,-0.652932147986662,0.016960870199442347,0.035663911339647185,-0.06540490792614795,-0.17706759874711586,-0.19438759635175373,-0.18059870708806658,-0.16675421357427073,-0.43588718602790305,-0.38178734364643724,0.00919886951262108,-0.24263235353004436,-0.23419654743444573,0.14706069480858866,-0.0215273367746139,-0.07926788576681769,-0.384061365094503,-0.34845811134269244,-0.18301426204237084,-0.14410623998531552,-0.2896557737009053,-0.2303138396671198,-0.2165232097813674,-0.35249189403442555,2
14.0,12.425,4.275,3.625,15.875,23.675,8.15,13.725,966.0,739.0,297.0,247.0,1061.0,1376.0,549.0,973.0,17.0,15.0,15.0,18.0,16.0,16.0,19.0,21.0,-0.6623553769558003,-0.3083703837790653,-0.21925140096279186,-0.03414982263347868,-0.3410595313546467,-0.3006953973338233,-0.07938267136391415,-0.09220878775375507,-0.6589380420202374,-0.23930459518021907,-0.012336868270603376,-0.02130861262220153,-0.5593164597060125,-0.2247536631079691,-0.17037909941039883,-0.040378411515209905,-0.5048341258733516,-0.5252609455974667,-0.29929487073307826,-0.28163638664139473,-0.28614718942587325,-0.21890909701186798,-0.29346007239218364,0.09646044962702421,-0.6009590120542455,-0.33341563295050897,-0.307055101116356,-0.1339841713252952,-0.49192774833013125,-0.1460095465479747,-0.17062487883086494,-0.2687344342358143,2
12.125,16.2,3.65,3.675,12.05,22.0,5.725,11.7,853.0,997.0,207.0,229.0,780.0,1286.0,347.0,604.0,22.0,15.0,13.0,15.0,17.0,17.0,16.0,17.0,-0.68306174646121,-0.10441501714163376,0.015826777618435386,0.09202763802386354,-0.4993247740528664,-0.34934452924842735,-0.34836136395533684,-0.3412292453200911,-0.07465333953488226,-0.0004116189557659624,-0.03023833112163737,-0.315021457184557,-0.251135782972331,-0.3642525775323884,0.14949287263007427,-0.24810576948188054,-0.3177336449824999,-0.3223222620235127,-0.008081859630575724,0.08317922183152882,-0.41061984585500655,-0.4145498533172814,-0.36851245426003704,-0.24490974216993242,-0.4441511146015568,-0.26964034256465746,-0.2717407436753526,0.07194644235310417,0.07761998948045924,-0.1668188891677325,-0.07408441194155295,-0.2699599642215886,2
16.0,19.575,3.625,5.025,14.425,22.075,6.875,13.375,1069.0,1268.0,204.0,318.0,929.0,1288.0,470.0,786.0,20.0,20.0,19.0,18.0,16.0,16.0,18.0,18.0,-0.33545703985072345,-0.3130454802827882,-0.06944113519449437,-0.08855356343171043,-0.48515863658072755,-0.3524202534736523,-0.12490273015390871,-0.08434063212307562,-0.12133014417104744,0.009904528567440288,-0.18533061242554758,-0.24433948092955796,-0.5071524709960096,-0.34859909812366,-0.22238186887337305,-0.2060667620194883,-0.3689785037698907,-0.24936919803320073,-0.2511342047900941,-0.00710118375406587,-0.3132676688640595,-0.30751143310503365,0.0079972292928499,0.017984837202924455,-0.562647503080687,-0.47494125184855873,-0.2239876232117142,-0.3341723141381283,-0.031411636960818626,0.09121773363423363,0.42774226509394553,-0.18554511065165674,2
20.25,16.275,4.55,4.1,15.075,25.225,8.5,13.45,1298.0,1021.0,241.0,265.0,968.0,1658.0,541.0,837.0,21.0,17.0,11.0,12.0,20.0,22.0,18.0,14.0,-0.4156078641574144,-0.35882563415458435,-0.39719367716245935,-0.2689679515663763,-0.22137574734575463,-0.2175021138054358,-0.04527893368786676,-0.054048412792880134,-0.1087918213723711,-0.3001778528868785,-0.19693118644091354,-0.20434515739289502,-0.5787298494187274,-0.48704194360758574,-0.49606548432128306,-0.22528562394227813,-0.3928954639954268,-0.48208516271328633,-0.02494883751139979,-0.2583430037337841,-0.37370261078704503,-0.10612289389161822,0.07234309322623825,-0.14535106604889655,-0.5673852109631903,-0.24374337766486992,-0.16705717240377108,-0.20356630642042428,-0.35776952690301583,-0.12176690429255167,-0.1467373960768572,-0.14411209091992713,2
17.425,17.6,3.85,3.7,16.3,21.8,7.675,13.725,1157.0,1051.0,215.0,237.0,1065.0,1457.0,515.0,829.0,22.0,18.0,16.0,16.0,20.0,18.0,18.0,15.0,-0.31017375173914746,0.035896179605784166,-0.14165246435793333,-0.0036360888248157678,-0.343453601196678,-0.4426373252162479,-0.39650341927484506,-0.33462181733371343,-0.15653966091573146,-0.2985303008421874,-0.03613747778628709,-0.15495045077808525,-0.27107804669253965,-0.2957157493122984,-0.047253166920514345,-0.10933712292403328,-0.35389023779521916,-0.10091059141475478,-0.07832084295454501,0.02636568548410563,-0.5184564272635012,-0.18179523425136143,-0.20952289680667202,-0.24016431235690197,-0.4448151896011273,-0.07397246292689491,0.16348628810766797,-0.18351117381775175,-0.3249269426056246,-0.12199071820722225,-0.3581183029016511,-0.33281416491945687,2
17.125,13.925,4.225,4.025,12.275,16.35,6.275,12.95,1254.0,978.0,220.0,227.0,761.0,1011.0,419.0,899.0,17.0,20.0,13.0,15.0,17.0,19.0,21.0,21.0,-0.5260530714113044,-0.14284837554472082,0.030856228940126598,-0.016433697171919864,-0.7788046599949857,-0.30673236853662667,0.17059265505055685,0.13232108588875013,-0.004027228930369903,-0.3474591336372851,-0.13100127991856608,-0.007966527200671083,-0.2041211158213457,-0.11269184429697578,-0.10276047625267513,-0.08972479639672444,-0.3200779707999357,-0.2074601093191387,0.011009625616988037,0.06589592576504778,-0.3644423758730121,-0.20228608010529797,0.031318529647513436,0.07932106451557748,-0.4328703854596303,-0.10153305418294223,0.026413773138849354,-0.24286179816838688,-0.6334275524195258,-0.5186753480750117,-0.3271159152149598,-0.4201948305129677,2
14.35,12.925,5.8,5.025,14.775,22.325,7.925,13.725,848.0,833.0,343.0,326.0,919.0,1558.0,492.0,878.0,13.0,18.0,17.0,16.0,20.0,17.0,17.0,18.0,-0.15805358305267853,-0.006664637743993298,-0.3408901787747666,-0.1610743617949062,-0.23268741589411823,-0.20614893927391073,0.13302943130527692,-0.020578070579213553,-0.4103126893595032,-0.11709823091217772,-0.18350069768670146,-0.17623809328385856,-0.6200188246911398,-0.3962304593737793,-0.24229968442367567,0.015985244756685904,-0.2890359775842896,-0.4169888591930349,-0.05976838285512435,-0.35939122139814444,-0.4605430378752572,-0.3097694108291308,-0.07767311427353916,-0.02593043717781068,-0.556094672513884,-0.43312641463291257,-0.255343755558651,-0.1359999274233922,-0.3815562406071266,-0.13777400168682347,-0.0620167100704466,0.10429233148837244,2
14.525,13.425,6.325,3.375,16.875,22.05,7.675,12.325,929.0,882.0,395.0,209.0,1047.0,1349.0,469.0,766.0,16.0,19.0,13.0,18.0,15.0,20.0,17.0,20.0,-0.3076805522400643,-0.034598656624961546,-0.36671902245350435,-0.37770186454838006,-0.2688426990900751,-0.2467851181156959,-0.04054816798048224,-0.028470619075243432,-0.5278949785591737,-0.46174946948180146,-0.4811245628665808,-0.3178054026440537,-0.23724298674169148,-0.615715686251864,-0.09105377589231867,-0.5265849197183684,-0.0759356211454338,-0.39224652302760044,0.3038891083527901,-0.30552241506695893,-0.28858738437872766,-0.24271229973223896,-0.09108976917677943,-0.09341416147995579,-0.29194980685010413,-0.2803822541516622,-0.05328404705453919,-0.0971288775834847,-0.3372165163681677,-0.3451373830659027,-0.0692330336431245,-0.06925224799547029,2
10.575,13.975,5.4,4.8,15.1,26.925,5.825,12.875,780.0,914.0,335.0,314.0,1089.0,1826.0,381.0,783.0,22.0,18.0,21.0,14.0,19.0,18.0,15.0,20.0,-0.5970815387661993,-0.22425145928909862,-0.3529343881343136,-0.34555794810600415,-0.26340684894188054,-0.3671006084106711,-0.22205257548837626,-0.12362911306950246,-0.6234211095639803,-0.5276236721031741,-0.5016893127377643,-0.30928610800491063,-0.6087574937866526,-0.5471467845746938,-0.4912749353163466,-0.2857459991252495,-0.7374974832108102,-0.3512682151290749,-0.34837825354189184,-0.1740700474463099,-0.5064005238834586,-0.16408570417872975,0.02501020795921049,-0.19115286043523022,-0.36496203158055734,-0.2021719543826964,-0.06939228416045483,-0.18110216301250043,-0.42640380060724725,-0.04928991079439566,0.19803130594629226,0.22223436127652216,2
11.675,13.85,3.875,4.8,13.125,19.275,6.45,12.9,816.0,935.0,245.0,303.0,888.0,1280.0,441.0,861.0,19.0,19.0,13.0,17.0,16.0,17.0,18.0,15.0,-0.5317180172039611,-0.13597100328691486,-0.3423607109942556,-0.2407788061913358,-0.6130301648100308,-0.701078802504131,-0.3175579570861311,-0.3726731111263686,-0.29993908973655353,0.14189032537367277,0.07450156382385742,-0.04700130670525172,-0.2481231904405088,-0.18948255326009605,-0.22443300734837915,-0.15921867127501635,-0.6107669944758842,-0.4431148419540001,-0.3825177517989192,-0.2680271342381961,-0.5084334849716129,-0.19778974135679966,0.12549301438025837,0.1268172859770818,-0.5672807907232367,-0.2004890668893796,0.2945113228992679,0.16889403538959483,-0.6561293542445751,-0.11553182894825997,0.09723833648459666,0.10067382637636109,2
9.35,8.825,4.825,4.65,15.05,16.875,7.1,13.45,520.0,509.0,349.0,245.0,985.0,935.0,447.0,832.0,16.0,14.0,18.0,13.0,15.0,17.0,18.0,19.0,-0.314989661095213,-0.16941082847259076,-0.39644144116823765,-0.3205521555154943,-0.2523295002892753,-0.4065166567040234,-0.21731047468936193,-0.20310750888936302,-0.6240550268783245,-0.21904447728265167,-0.20738659992033293,-0.1374249760589764,0.11879800795948062,0.15502245642082177,-0.16813652465652937,-0.09244311503004327,-0.5196887322620878,-0.2431753795739687,-0.14184987478386973,-0.22871815401710424,-0.00597604710704627,-0.017887665487667324,-0.22726687300554546,-0.0018411948324707507,-0.40131319788339254,-0.21426803573750786,-0.2569210290922435,-0.3678666361380541,-0.37933980466875306,-0.012525643700597156,-0.07740486022524946,-0.2211046216802144,2
10.55,12.375,4.85,4.475,14.125,17.675,7.475,13.425,624.0,737.0,317.0,287.0,961.0,1113.0,500.0,783.0,20.0,16.0,16.0,13.0,21.0,17.0,19.0,17.0,-0.2787501891201893,-0.1737671622088851,-0.4204778729466915,-0.16151460890966787,-0.3403320863732683,-0.46337900711900465,-0.39397003519894097,0.05847376298098751,-0.44994899537853267,-0.18850215641505938,-0.10661176523084288,-0.37029967564357574,-0.5858631277442093,-0.47312384172150296,-0.4784627922820521,-0.39601751858091694,-0.4947620709088709,-0.1868830696422348,-0.19663054672353003,-0.42483695146298495,-0.1976587266559505,-0.20759391104848715,-0.006306638695618543,0.031343596623854136,-0.23313583897878956,-0.16359462161595603,-0.02969166415436431,-0.26872993655105315,-0.15050366074429086,-0.12853874199933488,-0.010075808612536433,-0.08037324785590987,2
8.575,14.925,5.525,3.95,11.325,21.35,7.85,14.15,568.0,1007.0,370.0,265.0,799.0,1415.0,482.0,972.0,19.0,21.0,17.0,17.0,18.0,18.0,13.0,17.0,-0.6016695269974836,-0.3148920976699596,-0.2639809513726076,-0.10381781409194092,-0.7262208192474086,-0.6171109067873067,-0.49660131711385697,-0.32121087821109856,-0.552508610877156,-0.3316455724197651,-0.13542091637245326,-0.2712803140386037,-0.7798468898457637,-0.6723477244093868,-0.43133403529244985,-0.2130384130743826,-0.3923252174910263,-0.07783304062253592,0.051912283713659885,-0.38320339658472896,-0.5404358772820266,-0.5168730834821437,-0.29626864648501144,-0.3465987796390434,-0.3127719028206786,-0.467740060329182,-0.2969833220460201,-0.4588795337099427,-0.35978773814056897,0.037517601120637616,-0.18373380920902238,-0.3665096339738608,2
8.575,14.675,4.7,3.55,11.65,21.1,7.1,9.775,539.0,984.0,268.0,234.0,780.0,1314.0,407.0,606.0,19.0,16.0,14.0,22.0,20.0,18.0,19.0,16.0,-0.4024706093469387,-0.29590305612275075,-0.21900181645401615,-0.22177697425049328,-0.6827353809237232,-0.47511102076514244,-0.33022502801554193,-0.33664149219659606,-0.17964613590117018,-0.20786453819819337,-0.18552554029827997,0.09191010319441607,-0.44336505459606523,-0.22390470363286627,-0.267290628999368,0.12502596326778959,-0.6305777492489183,-0.2612857846715213,-0.0582457995918984,-0.13398954766419252,-0.6620471352628198,-0.6232834987103785,-0.5872304169078004,-0.5016566166450148,-0.13850797775753296,-0.18331943751297133,-0.01779582610426794,-0.15286356862232636,-0.31727542979629125,-0.2579561456425757,-0.11562174298220933,-0.20179940044298988,2
9.85,10.0,4.175,4.45,12.325,26.75,8.35,9.9,610.0,656.0,230.0,277.0,835.0,1842.0,540.0,529.0,20.0,16.0,11.0,14.0,23.0,18.0,18.0,16.0,-0.65448052289457,-0.3360864997554509,-0.02644594586884745,0.046836518481113594,-0.4826048888239034,-0.40237277151595574,-0.30353368345994713,-0.48102511669470566,-0.11888250550406225,-0.1836619389473149,-0.38228159408507684,0.11293120751135974,-0.4524977528649654,-0.5522313843530317,-0.2398830542780524,-0.31796501890234274,-0.5187318296127381,-0.05169643087677116,-0.19358155808887903,-0.14854591763807878,-0.6338256243001721,-0.25176686541760773,-0.3121693122490816,-0.3069512933207853,-0.45790751834590254,-0.09766628055303607,-0.04447088533619192,-0.0024151886551177972,-0.045720108240486175,-0.15238975841233932,-0.14333877261229294,-0.3618243720916535,2
7.35,12.525,3.525,3.0,13.425,24.4,7.55,11.05,419.0,786.0,187.0,148.0,931.0,1611.0,492.0,671.0,16.0,21.0,14.0,15.0,20.0,19.0,17.0,20.0,-0.31554136396160715,-0.3159452979676369,-0.5541501369403782,-0.06738953166458464,-0.5148187306722412,-0.18794242345695927,-0.144082515982135,-0.36167736685287527,-0.25274433592639406,-0.2862707786317151,-0.34822054192336765,-0.4727506513395626,0.025095161296752214,-0.2087287968660847,-0.10394329021871959,-0.3454150232846598,-0.4591665500561799,-0.05347323487042859,-0.2587682962259829,-0.12981435435628066,-0.5090082535152429,-0.15937085279370936,-0.016838690300008,-0.04288918943172231,-0.3912808444399677,-0.1741177538866492,0.18891049383967096,-0.07308015587049743,-0.21031509950202903,0.016070558785076162,-0.13184320825558316,0.16653318020193936,2
6.25,11.725,2.725,2.75,12.675,20.55,7.125,9.275,377.0,750.0,162.0,170.0,868.0,1424.0,480.0,565.0,17.0,17.0,18.0,18.0,19.0,17.0,21.0,14.0,-0.44873143814806815,-0.32866863839931726,-0.21749272730332714,-0.005419863873138757,-0.36492232595072155,-0.05169692402233073,-0.16730435484603798,-0.38591544910033054,-0.33804533613217147,-0.49424921767670343,-0.15579269601559925,-0.2898473208786758,-0.528292887544986,-0.30800811236396414,-0.2974268532868506,-0.2062140232565115,-0.4925792419100162,-0.25819005748736373,-0.06086333991850315,-0.23691147300273707,-0.6770715923361085,-0.222862449714494,0.10795061648364954,-0.0034946052726349073,-0.4149145576831528,-0.14906707939568692,-0.13676991704279412,-0.11536465700785409,-0.19515378958730897,0.026935990199565257,-0.10882745254448478,0.07977738932752522,2
8.975,14.775,4.75,4.375,13.125,21.075,7.6,11.3,594.0,867.0,295.0,297.0,783.0,1322.0,509.0,660.0,17.0,15.0,16.0,15.0,16.0,20.0,20.0,15.0,-0.52574682283466,-0.33295121788613674,-0.20541491988820484,0.07673914902404026,-0.296123913695757,-0.4829274883753973,-0.16893955713658423,-0.20419504181685752,-0.6625671614944773,-0.6377323853938883,-0.48900508635388407,-0.28707184791794577,-0.5261803055636572,-0.5845303831450711,-0.22213884026086012,-0.2423373763306305,-0.5238806687022407,-0.41644132549772184,-0.27705952745555534,-0.24446671372261744,-0.4449039668817015,-0.23528460644525143,-0.31468580820959074,-0.19318774995051574,-0.3977114326843125,0.0016558948506295568,-0.09503790163331972,-0.046467422464815604,-0.2878645922080576,-0.23689587316880656,-0.27324771717404506,-0.1895504999927875,2
10.725,13.35,5.825,2.7,11.55,20.15,8.775,12.6,677.0,859.0,387.0,156.0,602.0,1357.0,545.0,883.0,15.0,17.0,19.0,16.0,10.0,16.0,14.0,20.0,-0.5796208715031791,-0.4734872430975941,-0.33360045729380217,-0.30025126758102477,-0.6230294256418649,-0.5605518676634402,-0.3497769586172214,-0.13498845458347783,-0.5807581869924198,-0.24849574388458479,-0.41177124524760556,-0.11583604538947775,-0.22778087586635937,-0.3163110765442075,-0.38786378453041603,0.020775348334387548,-0.125733748121071,-0.35786793388667,-0.25654243472833543,-0.33871180975863047,-0.8283679155665898,-0.6719934266124429,-0.45856426351409596,-0.2880368239861601,-0.41432712941400196,-0.5060143430037672,-0.34721600489017934,-0.22990421392031776,-0.5231581918434398,-0.335737783393665,-0.24979733286659905,-0.2623812513079955,2
11.8,11.55,4.775,2.75,11.775,19.95,7.35,14.525,718.0,780.0,282.0,156.0,740.0,1377.0,531.0,991.0,13.0,21.0,16.0,14.0,21.0,19.0,17.0,22.0,-0.5947571445062191,-0.467715570371568,-0.35146910232824363,-0.3545505991337453,-0.636198744910835,-0.6010552501829168,-0.15148199722976333,-0.09696196547600756,-0.35757582184965647,-0.037227646170140766,-0.2934655548775394,-0.140848238147211,-0.1744237624812118,0.006871043319183626,-0.20212158906420732,-0.24504733083509625,-0.2698005152887358,0.18050608609186464,-0.20041365581608228,-0.24294899366538875,-0.5778577584567409,-0.3113286393131384,-0.23983986434231097,-0.2269271630010438,-0.5139220464020188,-0.06504589342078783,0.11077114091283867,-0.027221780260748757,-0.5342255013793373,-0.15659233116293222,-0.021508869383604152,0.06446056918375488,2
8.775,11.175,4.65,4.15,15.625,19.55,7.65,14.75,562.0,726.0,296.0,268.0,1117.0,1193.0,490.0,1019.0,17.0,16.0,17.0,15.0,18.0,17.0,16.0,22.0,-0.2867805473548237,-0.43268504519196627,-0.02149740402766363,-0.3537457327074832,-0.49015768667968335,-0.44126184226007475,-0.3330055943262697,-0.2562437993610283,-0.6815510923215085,-0.4122385772929162,-0.5169809980987187,-0.3357852007637841,-0.7592330205263037,-0.602693000505455,-0.7464864399839708,-0.5213426931218736,-0.746115239886622,-0.366519530131303,-0.2407094607787204,-0.22405828735982594,-0.421014539501437,-0.46440823088889766,-0.3180742549887324,-0.4792862196906078,-0.5418901363138158,-0.6391112153631585,-0.3736790580602076,-0.4029300347323682,-0.7493023437100046,-0.38671509871597964,-0.08512115267725638,0.14251065577070607,2
7.475,8.7,3.5,2.45,12.55,24.05,6.575,10.775,476.0,537.0,198.0,143.0,842.0,1662.0,428.0,679.0,18.0,19.0,15.0,15.0,18.0,19.0,14.0,17.0,-0.5507010195301958,-0.570995300990135,-0.47176848607812616,-0.1692413190524276,-0.3163664641778521,-0.3452930056351232,-0.136911519742427,-0.33923793239110095,-0.2104032769963001,-0.02142398530884819,-0.240292722210172,-0.4386559172487835,-0.10122709237554257,-0.45688509668155675,-0.023542615424590598,-0.20469244106153361,-0.5377218319561172,-0.21973831365985905,-0.17598097810455704,-0.08416230679717791,-0.7776907403977025,-0.49012733458654206,-0.4737745204916588,-0.2268599949271056,-0.18567774523270264,-0.13921473599628603,-0.010012144977344902,-0.0644875208838822,-0.383828508622616,-0.5782648845486753,-0.1766855888917267,-0.2676369183817678,2
