0,1,2,3,4,5,6,7,8,9,10,11,12,13,14,15,16,17,18,19,20,21,22,23,24,25,26,27,28,29,30,31,32,33,34,35,36,37,38,39,40,41,42,43,44,45,46,47,48,49,50,51,52,53,54,55,Gesture
17.775,11.925,6.375,9.575,17.525,33.125,61.95,35.675,1186.0,771.0,396.0,589.0,1042.0,1983.0,3037.0,1974.0,18.0,21.0,20.0,18.0,18.0,19.0,16.0,17.0,-0.4732154917404058,-0.34419818038412037,-0.2107141969427411,-0.026951381202497085,-0.524788819054835,-0.4065418853061248,-0.17601714744819585,-0.32823857314246,-0.42915068972259446,-0.4525312028976983,-0.05302631548776428,-0.2344669452394224,-0.4184660961431208,-0.4818529751225935,-0.34618400014223216,-0.6107647962428407,-0.4345539385895193,-0.4350990094530557,-0.01149202032746507,-0.08428099627385584,-0.3309332197218145,-0.5847864506613049,-0.24355800795296326,-0.26402811345287663,0.004192393764550963,-0.1372120830238053,-0.20327338929076702,-0.006077897079514878,-0.270791943474872,-0.21742302914815137,0.06439907729525639,0.09702576135942839,0
24.675,10.65,7.875,8.5,18.075,40.625,71.725,48.975,1514.0,719.0,494.0,589.0,1090.0,2327.0,3289.0,2806.0,17.0,21.0,17.0,23.0,16.0,13.0,16.0,15.0,-0.6496597210025815,-0.6374432239108248,-0.32756036212126827,-0.15941280117529688,-0.5194472368766149,-0.19873380416512657,-0.07668124516199078,-0.291788252489064,-0.4961429337281471,-0.4370764170713937,-0.12369391390931347,-0.2925387802114186,-0.814346201430913,-0.5338374369789719,-0.3674012269649205,-0.19206001796864938,-0.4520935519225767,-0.6106928473255006,-0.3680478866668579,-0.19402502672473868,-0.11878996301709017,-0.7395670239208828,-0.13580075844976455,-0.31539816655382674,-0.05570797294732168,-0.017501640614832222,-0.16076942336754438,-0.14875609650646607,-0.24278186334533147,-0.24997522173749245,0.09036692570233876,-0.021307824561335502,0
18.9,11.075,7.25,8.625,15.075,31.3,64.45,34.125,1210.0,782.0,442.0,562.0,901.0,1949.0,3612.0,2268.0,20.0,19.0,21.0,19.0,16.0,23.0,18.0,21.0,-0.4544113913191406,-0.3743299122708265,-0.23673502069721575,-0.3772297365552216,-0.6707329600542409,-0.28239672265086446,-0.2500406871166541,-0.2995927990376745,-0.25876459046603795,0.08878743693069895,-0.20760945553049096,-0.1505479167690208,-0.4634824266028762,-0.09351523480248511,0.019011324766453137,-0.16311167002665647,-0.45408334104855835,-0.41869350181637616,-0.4542822109161843,-0.2913735043990986,-0.4419360116508195,-0.34073281840012815,-0.5936300470496834,-0.3602283237313016,-0.2505707568793747,-0.15655826228112305,-0.07161688315268054,-0.21271790260468726,-0.265990489995667,0.025387801209317416,0.07763895155631231,-0.1204781980251233,0
19.425,7.625,7.1,10.525,13.025,25.55,59.225,25.075,1293.0,504.0,472.0,631.0,755.0,1461.0,3227.0,1502.0,18.0,16.0,18.0,19.0,14.0,12.0,15.0,17.0,-0.5555977558390904,-0.3209693667224532,-0.4057576788622257,-0.2989480636681626,-0.42561414651159335,-0.319521605610266,-0.07814589046792317,-0.17199662277707678,-0.573112414189897,-0.3969224555022048,-0.498803831314833,-0.5572011605454629,-0.4532596493618901,-0.5118497074431192,-0.4644714719446775,-0.5287182187568406,-0.4482393375863015,-0.45994230065162794,-0.6059595349813104,-0.30327826318151163,-0.5560014213649364,-0.4286233432093815,-0.6814312619572804,-0.5480266539201479,-0.08002246973540086,-0.2946798521457001,-0.07740553406750288,-0.2474769906084274,-0.6437774220078141,-0.6536887885286164,-0.5790497063450394,-0.4645583743684646,0
20.425,10.6,5.6,10.525,8.025,12.825,44.825,16.725,1383.0,701.0,357.0,652.0,550.0,657.0,2727.0,893.0,20.0,19.0,19.0,17.0,19.0,17.0,20.0,14.0,-0.4790599564049677,-0.14485241801849827,-0.1444784522421795,-0.25035422666892704,-0.47947674187486894,-0.3882434506108092,-0.3471236278041587,-0.49633810906734377,-0.4750280702652408,-0.48132744985006565,-0.40275023912910574,-0.3966721134301982,-0.3723598254462403,-0.40859899218726714,-0.3497017426090686,-0.4430723832208546,-0.7115759562974479,-0.46316955370179175,-0.3658361498956911,-0.2871623811458683,0.016425410978315264,-0.5276724134943908,-0.1870733442076325,-0.4650419858182803,-0.27492140281041844,-0.2696470711135745,-0.03609695719649084,-0.26425047592720513,-0.25876163005168257,-0.3745919055910033,-0.32689113393968694,-0.3224154561041771,0
17.6,10.525,5.15,11.925,10.75,17.775,56.775,19.2,1194.0,664.0,318.0,771.0,645.0,957.0,3454.0,1150.0,16.0,17.0,17.0,20.0,13.0,14.0,12.0,17.0,-0.546244709878752,-0.4239226149563399,-0.32670578246547677,-0.24598321358862693,-0.7231385695073027,-0.6874922647365326,-0.7207825668425553,-0.4012829689773142,-0.4098984756439066,-0.6080416961019149,-0.42167961192073605,-0.44840936827540734,-0.3735915680667477,-0.43487935975788544,-0.3119753375796541,-0.29962922197892405,-0.5132292388232991,-0.4349716352898875,-0.4873055079302773,-0.25339145504829796,-0.1453117801249331,-0.60605523095223,-0.2724235154794621,-0.5719119193537351,-0.4878097208386229,-0.5805368599990987,-0.2994872123482559,-0.4757554832688352,-0.3290748361891408,-0.482003447929828,-0.4027640607511223,-0.475022483546991,0
19.9,5.75,5.35,8.65,12.6,14.425,43.05,16.325,1356.0,352.0,371.0,515.0,907.0,855.0,2563.0,1047.0,18.0,17.0,17.0,15.0,25.0,17.0,17.0,16.0,-0.5398389462885723,-0.4847208626518085,-0.11869022363152842,-0.33570322584545154,-0.619837859038036,-0.11142121095809486,0.25473403911211717,0.16265351945677856,-0.5684220708623361,-0.29427049083034634,-0.2825835332538034,-0.27443560328353855,-0.1121876410334031,-0.5129025476091332,-0.03709128430660538,-0.38743848664820146,-0.7609111136194465,-0.49481440528342124,-0.7301565437010249,-0.5153365817165884,-0.20857366703767563,-0.3592833086748634,-0.17050289195624235,-0.2775240595038488,-0.296815849698065,-0.414646401693757,-0.1426663381868201,-0.46899063237510796,-0.47939297433730027,-0.40306278471209744,-0.15223875372590537,-0.10563521520898515,0
22.3,5.65,4.075,5.9,10.9,13.375,48.175,17.9,1611.0,328.0,227.0,364.0,815.0,806.0,3156.0,1174.0,20.0,12.0,12.0,16.0,22.0,15.0,16.0,16.0,-0.9501298961666707,-0.42665447778258186,-0.07067210004806383,-0.09726153611354826,-0.07758811189481603,-0.06938044475259694,0.1783267452761243,-0.1969292210373762,-0.18215801072629226,-0.4791266958975329,-0.11971211370123382,-0.26145774761504254,-0.2583702027958398,-0.36800171527807857,-0.096369578545607,-0.11087738717977787,-0.6948556692129131,-0.15343501090484274,-0.3779516432361042,-0.569156198327722,-0.2910762272882784,-0.4478928311161366,-0.3403297775533746,-0.3307301540188895,-0.7200847088288883,-0.4817828715825701,-0.02467729857685941,-0.08977931663561904,-0.5808882886588623,-0.44009115521223674,-0.08896240420194332,-0.07269514300793024,0
17.6,5.45,4.575,6.35,7.075,14.45,56.3,23.825,1154.0,293.0,257.0,424.0,423.0,832.0,3255.0,1481.0,13.0,13.0,12.0,12.0,17.0,15.0,16.0,20.0,-0.6916118921228055,-0.5760037280643687,-0.5566473022082962,-0.3741915360851237,-0.04094248934860002,-0.1669753899127565,-0.11540712977269948,-0.2570322435651676,-0.21703762399402807,-0.0823920019654722,-0.18770261643017366,-0.2960859977705908,-0.3849791709329191,-0.42033438670951545,-0.3538909869210385,-0.3384132110830608,-0.34201848664195017,-0.08407147966694735,-0.33868064732869324,-0.23786708127256992,-0.32656260488373323,-0.3472055174349094,-0.521890280159847,-0.3107603614164854,-0.2781508505033781,0.03501734761080335,-0.0636957892110927,-0.21530247207497508,-0.4687429341302533,-0.4641292087433946,-0.07005534392897786,-0.17774665211374607,0
17.675,7.675,5.975,7.35,11.25,15.9,41.15,20.45,1174.0,460.0,367.0,453.0,734.0,941.0,1979.0,1351.0,18.0,20.0,17.0,13.0,19.0,19.0,12.0,16.0,-0.8526651245270124,-0.8577399448193046,-0.6756533166081813,-0.3674246900637158,-0.23979014085487543,-0.33462564997158667,-0.034458644430058936,-0.30856792680911665,-0.3548979864272542,-0.17740064687073162,0.22922005632999898,-0.108287370525753,-0.5106579728050955,-0.2744956061981028,-0.46589615456267164,-0.4265199624590441,-0.48720978121745906,-0.25799790257209615,-0.3995073127603668,-0.36719338170030114,-0.1373854226009377,0.047630341947969786,-0.2960549513010572,-0.38269754265200573,0.17549752898080873,-0.3186454838736591,-0.18178042831671362,-0.08800363467729921,-0.3991935490982145,-0.18350326710229467,-0.10901081791098235,-0.07132305943371968,0
16.125,8.925,5.65,6.2,9.25,15.0,36.45,14.95,1052.0,646.0,404.0,391.0,628.0,882.0,2056.0,1029.0,19.0,22.0,20.0,16.0,17.0,15.0,14.0,18.0,-0.4923832078696298,-0.5002232249508913,-0.2505251614556198,-0.39397576765566256,-0.4607847978291771,-0.24917964088328887,-0.032465850349286764,-0.4025683972840551,-0.6793569042269892,-0.3062561937144992,0.024014942178316945,0.11984530725510702,-0.44168970682136,-0.3541679643999357,-0.2653993161719487,-0.23307321361931355,-0.4943071858503835,-0.18681857635046908,0.05116619570666813,-0.0980120615935438,-0.18531567616217598,-0.38821804948530414,0.02051405213025625,-0.49230269145114314,-0.3079119016551627,-0.11897647908449929,-0.4617821174641163,-0.36928775142461856,-0.6934318664208724,-0.5503606124192458,-0.4138568868263313,-0.38651533721452513,0
14.975,10.275,5.8,7.625,11.25,17.825,40.075,10.3,885.0,681.0,363.0,452.0,721.0,881.0,1930.0,611.0,17.0,18.0,16.0,14.0,17.0,11.0,12.0,15.0,-0.32068540192294853,-0.32617647973966535,-0.21688659302658425,-0.4665129952816817,-0.530498005786472,-0.39373109004749296,-0.04827290582322222,-0.17958176253779623,-0.47519905310582,-0.40604580780406685,-0.39205773764873164,-0.3683101419766279,-0.21810101890538797,-0.3017229604675528,-0.2341882744881403,-0.4084938487945651,-0.5151435872662798,-0.32947687996127895,-0.32334253023775816,-0.30906052619976365,-0.0005799269940504884,-0.2190287768023545,-0.14039203238417522,-0.43017320921341085,-0.1874875001327997,-0.398606110706883,-0.2998072805019161,-0.38652059166417163,-0.18416004698420516,-0.4677843728729769,-0.3200172616545372,-0.2810887290481348,0
14.0,9.325,4.975,7.2,8.3,13.85,33.65,9.975,851.0,633.0,350.0,449.0,424.0,634.0,1892.0,590.0,16.0,17.0,17.0,14.0,13.0,13.0,18.0,15.0,-0.3195039226229138,-0.36436159040801386,-0.2538173179362033,-0.4846378988186087,-0.5672658098696076,-0.4343580118427458,0.000209143623713765,-0.023397364231411588,-0.7707531506224776,-0.5549000677867688,-0.3746866156693363,-0.2936838698052267,-0.4124504793274757,-0.3001729256193099,-0.33532918194406724,-0.4768931358364934,0.044402539556603955,-0.3929378618990378,-0.19550075025890284,-0.33917985552602037,0.35128799981456105,-0.13174203299979062,-0.12338453355217313,-0.27235539483082283,-0.2649480131498384,-0.2162360681542312,-0.16423156731139565,-0.32455369845092175,-0.24360206807122742,-0.133555519826004,-0.2977738335263269,-0.09394437227784941,0
19.35,8.975,5.45,7.1,9.275,12.7,26.775,16.275,1346.0,571.0,316.0,461.0,506.0,635.0,1772.0,1041.0,21.0,17.0,17.0,16.0,14.0,16.0,18.0,19.0,-0.6743736132446242,-0.3343450180422016,-0.15068504814874487,-0.014291337688199861,-0.4928690777434534,-0.30743254796040587,-0.21410234716994084,-0.34567982213374077,-0.3577127734788115,-0.41421320421994856,-0.09935432219047975,-0.21794675631720806,-0.4764537807415279,-0.4843257836745027,-0.23310537978741952,-0.3256863423983432,-0.21441676728801973,-0.13158319925322806,-0.26095255322021543,-0.27091294456165593,0.020010147408167502,-0.18954490120136971,-0.0872614874618457,-0.46302902179089706,-0.4885187487989694,-0.18717495627634245,-0.07425896924262931,-0.1850192210433407,-0.45918935242919523,-0.23143449617090484,-0.5082811722563425,-0.2245853241269074,0
16.675,7.425,6.7,7.625,10.4,14.275,30.725,15.3,1123.0,487.0,431.0,484.0,705.0,872.0,1962.0,922.0,19.0,18.0,19.0,16.0,19.0,16.0,16.0,15.0,-0.5629980358270938,-0.418247391229552,-0.1952472317779916,-0.23473869280110138,-0.7739242000942117,-0.6423088343389377,-0.3950378030352901,-0.29001188364071473,-0.592456632249262,-0.44646365171851915,-0.19822479171269466,-0.30361876430254453,-0.6241650155855026,-0.7842092588377929,-0.5073238396170741,-0.5207252900765821,-0.9060017725596201,-0.7192965245394668,-0.4961634124718209,-0.28553316161961,-0.4279537439820909,-0.37353043063640656,-0.18074699523868093,-0.3207576951756878,-0.550287079922741,-0.5211141146567603,-0.46900798195473353,-0.47863434715974024,-0.18606471957142864,0.053812557975998244,-0.3442177169513427,-0.03006713199908873,0
20.65,10.1,6.375,7.325,9.45,14.05,40.05,16.425,1495.0,727.0,474.0,412.0,682.0,914.0,2227.0,860.0,19.0,23.0,21.0,13.0,21.0,15.0,15.0,11.0,-0.6480970994491965,-0.4560216332838272,-0.3917045841665495,-0.4453159744782047,-0.7373544094144409,-0.20484051879180287,-0.20637093610130677,-0.418228834002368,-0.9031435746039286,-0.44906531631839625,-0.054715874560807405,0.02600240871475758,-0.4100696400811602,-0.5169509922594258,-0.44702499351823943,-0.6029309354957929,-0.9119125821759719,-0.5636861501985582,-0.3489057092611478,-0.3753291990926224,-0.5630380521049301,-0.35463809147659636,-0.3907706924037789,-0.4846308084399188,-0.24355920568988385,-0.19396324881142588,-0.4330799641401566,-0.44453326092397555,-0.021066686855566907,-0.354948631086068,-0.2932406999106466,-0.1957954196104048,0
23.85,9.175,6.25,8.175,9.8,15.475,40.45,18.225,1563.0,639.0,395.0,476.0,623.0,960.0,2431.0,1076.0,20.0,20.0,17.0,16.0,16.0,17.0,15.0,18.0,-0.5253509293605931,-0.3536267532198176,-0.3085049646019775,-0.5305289291583644,-0.4281855453367072,-0.036652663148334784,-0.22889460893322178,-0.3754010961149082,-0.49135865043354787,-0.13455429020536258,-0.3757722346830453,-0.32235900344675156,-0.31345297096803376,-0.16397419972301233,-0.301168813877047,-0.2888362637432682,-0.6416859662700737,-0.41414040061956703,-0.6234724276677275,-0.39621627632301404,-0.6011280899325684,-0.6991056324699064,-0.6306039518720673,-0.47735259214208203,-0.3897605869848743,-0.3924552891907397,-0.38790502311214864,-0.528313312133289,-0.34356531380090877,-0.5679099062184543,-0.36916825491530886,-0.47528979063389276,0
19.075,10.175,4.75,8.2,8.475,10.9,31.075,11.45,1340.0,618.0,314.0,574.0,541.0,724.0,2242.0,719.0,22.0,14.0,17.0,18.0,17.0,18.0,19.0,14.0,-0.8746904727555348,-0.5649160728920121,-0.6394321802847145,-0.3053120440978032,-0.4218280095646252,-0.5575516969908181,-0.334099945490547,-0.23667376515983507,-0.47818535015130886,-0.23986338694680046,-0.2834160980543639,-0.2597394712474782,-0.5940562353532424,-0.264000241008365,-0.19822944458692957,-0.16423775347743594,-0.5898438433197322,-0.4295548580299521,-0.4029446945747151,-0.18406758226561662,-0.4832430717423031,-0.5465684674747903,-0.363246089680647,-0.38414826159536064,-0.7459026156334503,-0.5160203904186723,-0.4365834413600174,-0.2915442228594067,-0.3305691722607135,-0.42790796488065597,-0.23167526997369567,-0.31583525675992197,0
19.425,8.175,4.5,8.1,11.1,17.5,31.4,15.05,1328.0,503.0,278.0,494.0,712.0,808.0,1763.0,1037.0,20.0,16.0,13.0,12.0,15.0,13.0,12.0,19.0,-0.5321936464625839,-0.11059781615601952,0.009813448917637637,-0.08408527147910022,-0.2856285927192153,-0.18712417539642906,-0.17436522957579803,-0.17875467151280183,-0.2185307704609737,0.014228469635675365,-0.10061302413394577,-0.161700932931952,-0.19428439635272832,-0.39258958025605023,-0.30896885063665885,-0.16085977221778913,-0.46324372547894,-0.31244915853650446,-0.46785366412495644,-0.4301855978853112,0.22395828641414256,-0.41568509464817177,-0.08853486030690808,-0.28339149685409404,-0.2339647328245941,-0.29870056994502286,-0.3717870750587349,-0.3623118321132487,-0.47605450167711727,-0.34757613899760664,-0.2973647220604163,-0.36541360907129145,0
16.1,10.925,4.825,7.075,9.675,14.85,30.85,12.45,1080.0,683.0,297.0,423.0,649.0,745.0,1808.0,727.0,18.0,19.0,15.0,17.0,20.0,9.0,13.0,13.0,-0.38529226549958906,-0.20029795222707109,-0.1733860886645108,-0.19095940206225032,-0.5151430818172184,-0.5706409591813343,-0.1900815189509748,-0.3032144473648065,-0.3529238202860143,-0.22367109642838992,-0.029369528464391358,-0.07183185251437339,-0.09279354482097035,-0.22301624033370238,-0.17045637708822356,-0.20205808375206522,-0.6252305585506854,-0.41051854711241365,-0.21361351750327978,-0.37986002127009627,-0.06986947966491343,-0.07858845081992463,-0.17521214869636342,-0.25347380185858703,-0.07447889184158496,-0.36242870258545073,-0.2791554229404395,-0.2498770531971487,-0.262439997979965,-0.40533144452661396,-0.31485193291711805,-0.06678364141650653,0
22.375,8.525,5.225,7.625,6.45,9.3,28.65,7.55,1633.0,517.0,313.0,449.0,401.0,451.0,1845.0,397.0,19.0,20.0,17.0,19.0,16.0,12.0,18.0,15.0,-0.8708034647233517,-0.5203870267327817,-0.3093427297382151,-0.30742306270622377,-0.20611619253411198,-0.2775463074739939,-0.15475854094298477,-0.28580559369213987,-0.16898820001639997,-0.2908681912780742,-0.11217406030276893,-0.5255877336365533,-0.1444339147092504,-0.23047120280267386,-0.16257137853998807,-0.34166262151803456,-0.4917334691841605,-0.3584426172372123,-0.2254102343320914,-0.2870973986775411,0.1749794270553461,-0.4534596472870994,-0.13063636879217788,-0.46318191368180744,-0.30712061291650455,-0.5392824735357914,-0.23978270506307703,-0.5233440993643652,0.15370798731036003,-0.468677902943395,-0.06482234780703852,-0.3754907022611519,0
20.375,10.75,6.1,8.625,7.725,14.45,33.95,9.675,1425.0,761.0,383.0,613.0,480.0,803.0,1957.0,551.0,18.0,21.0,18.0,22.0,19.0,11.0,15.0,17.0,-0.7063671337897772,-0.21494531782896448,-0.13996465784041456,-0.12142576515164893,-0.8017630419264334,-0.3914653224599861,-0.25160729175372326,-0.22876176095140546,-0.4783043099566712,-0.4541878601224542,-0.281975476357105,-0.45925226061807267,-0.5250713356702896,-0.2854299499873807,-0.24190205111772128,-0.34893186964308903,-0.4404410117528809,-0.1723505760526983,-0.09722829420481288,-0.3826138494259651,0.06435198985025037,-0.38841790404155296,0.10904697151037203,-0.45747436317311296,-0.25016508502309953,-0.12651119184456466,-0.09937652917366119,-0.20905526265918392,-0.12408231782529754,-0.15229285837744086,-0.21858102777572705,-0.2108891039159847,0
22.825,9.675,4.95,8.325,9.8,11.1,32.7,11.5,1567.0,651.0,279.0,500.0,626.0,606.0,1930.0,671.0,18.0,20.0,14.0,13.0,17.0,17.0,16.0,15.0,-0.7073349427359609,-0.42565237316081717,-0.6412337373730507,-0.4396563096730602,-0.5438473814065568,-0.05775786892085967,-0.025427919201103544,-0.3246660688699435,-0.1992833044236325,-0.04759189229419066,-0.2393239683819551,-0.18571824713090068,-0.54264274405797,-0.4016244411717648,-0.5598122544916009,-0.276439544366568,-0.5910012365191754,-0.1508538306048044,-0.4529580213749591,-0.29922032604244264,0.05082957239147249,-0.12074568452537955,0.07746214223715286,0.0009111259264047393,-0.12739511973950388,-0.259556511674223,-0.01486668751542549,-0.1952569671323199,-0.0723045118122897,-0.10477185488539525,-0.0719366717879215,-0.010713520846007272,0
26.15,9.025,5.475,6.725,13.05,9.85,35.725,15.35,1748.0,569.0,365.0,432.0,906.0,590.0,2424.0,1028.0,18.0,15.0,22.0,19.0,21.0,14.0,24.0,19.0,-0.9573196437041281,-0.9403848937445515,-0.5642236745226403,-0.3580679584439612,-0.35770217570170365,-0.2954225402744896,-0.13429807790310003,-0.2546065113376073,-0.4416567962992842,-0.12405450440435789,-0.23958587200567508,-0.5465703028234791,-0.4381697866117272,-0.3841692576995297,-0.4316302560095653,-0.3786789492245664,-0.9150342852296942,-0.4937717637692595,-0.47568570254022347,-0.35258498086020523,-0.3632272258022676,-0.10174381537490129,-0.5629501268729581,-0.5018708874627186,-0.8265035609050941,-0.7608028566867191,-0.4115247487755807,-0.17389912827427967,-0.7189978580787669,-0.3771952585222626,-0.06053944503894567,0.04777404394943106,0
23.7,6.675,4.95,4.975,10.75,12.375,48.125,18.85,1561.0,406.0,294.0,319.0,669.0,795.0,3200.0,1309.0,18.0,22.0,15.0,12.0,20.0,17.0,18.0,19.0,-0.5984328832112046,-0.43372866299789875,-0.08206662798596484,-0.2513617618266059,-0.41533550197718866,-0.33677076772592474,-0.1972546672792477,-0.35646039277679,-0.5524442462566985,-0.4133253195946666,-0.2384926497883572,-0.18922679882454518,-0.4664041013294108,-0.40206906641182,-0.18947708093976218,-0.1823289251438413,-0.4968430898725098,-0.3714051272312465,-0.21095388310502644,-0.24016987672552237,-0.3563547697977284,-0.23695820627757072,-0.24140937379794325,-0.29202910072705224,-0.6124214553223648,-0.40252214971996303,-0.3105560217227448,-0.4590238036373979,-0.5765947316231093,-0.18740382300419897,-0.0028437326767401815,-0.2018456075231891,0
18.725,7.9,4.575,6.8,9.9,15.625,40.375,19.325,1247.0,466.0,269.0,421.0,602.0,1077.0,2475.0,1187.0,19.0,16.0,16.0,19.0,15.0,20.0,16.0,18.0,-0.6554323822748496,-0.4326368114022564,-0.04904051587901975,-0.0005139766917010099,-0.17220805956742308,0.000677299212682766,-0.2116956115557217,-0.07875156706719272,-0.2198656983622401,-0.2910042645071793,-0.15220847109331898,-0.10606054384771851,-0.5804197732836153,-0.5334011467317419,-0.4434668259202655,-0.15566109093948993,-0.6893849544220725,-0.498386638737266,-0.6238136947666795,-0.4508280521613964,-0.8877057183609528,-0.6802649663261254,-0.3781086854982752,-0.31105868558891153,-0.45724607619728896,-0.5624747946595707,-0.38231087340397946,-0.4790279335654034,-0.4153181463559861,-0.12799492001970703,-0.05021922636798846,-0.03782521723883295,0
18.225,9.425,4.125,4.85,9.15,13.975,38.2,23.4,1209.0,536.0,241.0,281.0,538.0,859.0,2065.0,1486.0,19.0,18.0,18.0,15.0,18.0,17.0,13.0,17.0,-0.6492730108136247,-0.2643304466842391,-0.3057931757166986,-0.24089819549645705,-0.1622322444948453,-0.06549138374889522,-0.12776606108591565,-0.36729448479518245,-0.2592799119369505,-0.24677877838123904,-0.2086309231648555,-0.30693711703235793,-0.3266778179790905,-0.27845481523600524,-0.3003426142723699,-0.5084688369657498,-0.2504268596487417,-0.3852207873164546,-0.12331791228351287,-0.3628110457351421,-0.1706349230963285,0.16524438490207655,0.0971386683367873,-0.4460685172761119,-0.24307880303254661,-0.4406496402816928,-0.33709487726272047,-0.40237351034099617,-0.4389600365668988,-0.10762919112463248,-0.4500366221600459,-0.2223970773595029,0
19.025,6.75,5.2,7.0,10.55,17.475,52.7,23.675,1208.0,391.0,323.0,404.0,622.0,1097.0,3159.0,1499.0,18.0,16.0,18.0,15.0,18.0,19.0,15.0,13.0,-0.45105132793754665,-0.271232601280698,-0.18176689230912368,-0.24627866667503368,-0.17613594341622799,-0.16990316223935636,-0.17068504429120276,-0.22031459392342054,-0.4027718054362062,-0.4694567486336074,-0.2252166055672665,-0.006534098844164363,-0.24105543179256386,-0.3133844901548345,-0.11341846381934255,-0.4005085060718607,-0.2572034964714469,-0.3056278693144136,-0.28815401759006154,-0.4993884765130868,-0.24701479710141153,0.018881744790283532,-0.01716885401069835,-0.514209882866874,-0.5449310273106996,-0.5831674203062319,-0.18617735643315952,-0.07787057437509254,-0.3731806513880047,-0.37341571730080014,0.013081376508449202,0.09807951043052211,0
20.075,7.6,5.525,8.15,9.0,17.35,52.225,23.975,1423.0,537.0,360.0,577.0,574.0,829.0,2560.0,1602.0,19.0,22.0,22.0,21.0,17.0,13.0,14.0,18.0,-0.5564585443696626,-0.33652079901701026,-0.16724442797982272,-0.3343393110495442,-0.8364986302610224,-0.6087529972570558,-0.18743568470471966,-0.22854499161405922,-0.7996121139343727,-0.39253430721647226,0.01759552451936155,0.09143208920785915,-0.6475861775543335,-0.5526037531753066,-0.4655272066751567,-0.556040290333855,-0.3069759654284021,-0.31237918112919283,-0.23034669091271184,-0.10072674532693036,0.0612380556599477,-0.14855464521143807,-0.24120027446208434,-0.20386873409076667,0.06284646259174743,-0.39925354839740884,-0.20388346047246048,-0.13450988652797616,-0.41950170254633995,-0.31415315032858665,-0.12737662582416956,-0.06457642686123526,0
22.6,6.925,5.55,9.35,12.85,19.6,62.275,26.2,1649.0,438.0,373.0,641.0,757.0,981.0,3105.0,1744.0,21.0,16.0,19.0,22.0,17.0,14.0,14.0,21.0,-0.5720339026374802,-0.4785212935372525,-0.34500748361331374,-0.42341911470977805,-0.30943621938657556,-0.2723262487312221,-0.052622513193642285,-0.35475558034930965,-0.6567198955984476,-0.30835660018974775,-0.19397424598779336,-0.31016628726053325,-0.6291195956272728,-0.3618239100752465,-0.35115718384686506,-0.38773166081925575,-0.3081365928332829,-0.31073228786209545,-0.35074302691263987,-0.31246928111504585,0.05477047181980123,-0.20049980174825663,-0.23997049306730098,-0.2863128867253584,-0.1087154807977384,-0.3473527326515114,-0.4418124632618403,-0.19934032941365587,-0.4371884242260364,-0.19670833477389463,-0.3726655242813316,-0.2258995385630065,0
21.075,8.15,7.65,6.9,15.4,24.825,63.275,30.1,1293.0,537.0,463.0,449.0,974.0,1537.0,3348.0,1663.0,15.0,16.0,18.0,20.0,17.0,14.0,12.0,14.0,-0.9191679357397254,-1.0872652493510564,-0.8807066009644566,-0.6705244779551093,-0.37084708035462566,-0.24581700603607742,-0.26229902235397884,-0.29862142632151206,-0.4371120388971512,-0.23397729666112066,-0.2625841350777378,-0.4494455589371573,-0.38760029943663427,-0.08763502229263354,-0.18271393805738778,-0.2349390988694351,-0.747612340593005,-0.7881907851680475,-0.6855381259848362,-0.5100997356783625,-0.28683868833397086,-0.5691776877877393,-0.29524704778926164,-0.49731125978337193,-0.340867338457806,-0.4893210094654498,-0.49438084835234014,-0.29164765517829744,0.05521586964073603,-0.4659841475247493,-0.05292845331368119,-0.33799080785674734,0
21.65,12.35,9.375,8.675,18.825,37.975,80.075,38.975,1369.0,773.0,632.0,487.0,1278.0,2358.0,4671.0,2561.0,16.0,18.0,18.0,14.0,20.0,15.0,20.0,18.0,-0.6866550345970618,-0.7844102416535432,-0.696618262255084,-0.40101880240842763,-0.47458029027111964,-0.6146111333612496,-0.41281483122555235,-0.5400171424582245,-0.4890169021356285,-0.31421515319149534,-0.21071595154128694,-0.3998557369664497,-0.24709209606076127,-0.13449150581991937,-0.2051358758219768,-0.17166986036398799,-0.8774799678964552,-0.7437827558531998,-0.8352193808987212,-0.6041820360844783,-0.48352411881811147,-0.5555184271357027,-0.48909757853078595,-0.5277372779387467,-0.41123903882590046,-0.15734835371183903,-0.3749756668405245,-0.21315317254010524,-0.42963127853180183,-0.24632376889597454,-0.21135727095869597,-0.23255175456329014,0
21.15,9.075,7.075,10.5,18.45,35.0,69.15,34.95,1330.0,525.0,403.0,678.0,1197.0,1987.0,3125.0,2141.0,17.0,20.0,16.0,22.0,19.0,17.0,11.0,15.0,-0.5023941466948381,-0.5531606079553729,-0.5462972339668867,-0.3742789559029153,-0.22641183497702527,-0.11934150119120897,-0.14326408828754425,-0.24920762768289548,-0.1162723665536063,-0.039624812897543285,-0.13196713990138728,-0.2079033594008924,-0.4575476814715622,-0.20201243899035012,-0.19195282222188248,-0.18167381164771934,-0.5321051139467087,-0.3227436004285423,-0.464618559363893,-0.35889553669501595,-0.34134422416761495,-0.37896649091461143,-0.4410011376565911,-0.3958938227829504,-0.10038307593478724,-0.1840682515359622,-0.20295085055966167,0.10062243108661129,-0.3965404313887355,-0.3830521610579289,-0.2684316215140653,-0.25832470336558383,0
16.525,10.225,5.8,9.025,8.65,22.875,50.75,23.65,1134.0,683.0,322.0,593.0,514.0,1150.0,2753.0,1680.0,22.0,20.0,13.0,16.0,15.0,15.0,15.0,22.0,-0.6740485558437519,-0.5542549292552713,-0.4150587691647715,-0.1809977306249386,-0.4537393210237514,-0.23212770987436052,-0.2679424580239425,-0.33269467490807936,-0.3295971883849142,-0.02675102866498219,-0.33078144717516617,-0.46436925464639794,-0.6111116799043596,-0.5239132799832958,-0.4909885670433396,-0.4067244179492948,-0.39655562580662024,-0.4336649551246292,-0.42960413586325297,-0.34055856554866265,-0.40735003305944884,-0.5503670913152252,-0.6284673971000067,-0.4157430325251137,-0.17971958520543815,-0.016167665345905798,-0.15952035240053553,-0.0812766730316175,-0.5971709950029741,-0.3638083412217195,-0.4624779822894482,-0.3670489114045402,0
18.825,8.3,4.925,8.75,9.275,18.975,45.275,21.0,1313.0,545.0,297.0,617.0,564.0,1006.0,2100.0,1428.0,19.0,16.0,14.0,18.0,17.0,14.0,12.0,21.0,-0.6613201890521877,-0.6578736171616735,-0.4140684585336041,-0.31754487898135575,-0.3227455807358252,-0.276005644929063,-0.03357510440582166,-0.2800980836515092,-0.2709708924708716,-0.1822794109772625,-0.04182010488033458,-0.19921956428972784,-0.5720466118555968,-0.3711995875303978,-0.3933435116205833,-0.353209798327927,-0.3555405610083289,-0.31545361694477764,-0.4639114980695482,-0.4274612230362021,-0.22093344458578085,-0.567443508947239,-0.40391773823173177,-0.5224868564984075,-0.22141249117151793,-0.26116680421177296,-0.5720332177133717,-0.35753389014529363,-0.5972507705329746,-0.38424371569753724,-0.43934629244058954,-0.3415473866092978,0
19.675,7.775,5.375,10.375,12.45,20.175,47.775,19.95,1296.0,515.0,320.0,607.0,788.0,1062.0,2341.0,1193.0,21.0,16.0,18.0,15.0,19.0,17.0,17.0,17.0,-0.6088560601029397,-0.4640932817896,-0.3843385749202478,-0.3784132551705033,-0.49601008116170886,-0.43116870110708794,-0.11420696167614079,-0.28480569808478684,-0.3971865300574905,-0.2779741168192008,-0.26821586222833843,-0.18179066839468513,-0.4856673697220655,-0.4987272313512289,-0.4076767896669231,-0.48554960018887205,-0.5477135538308346,-0.42726336137280563,-0.3247458445306614,-0.31039386938560815,-0.18891166369031254,-0.4266430576243566,-0.39941250622172736,-0.4752971330674941,-0.06410206423028747,-0.42668711528872394,0.006198074497203635,-0.4927266834872167,-0.33511200574616123,-0.30794312267311386,-0.34890438638292176,-0.33006047781849546,0
18.825,9.425,5.15,9.675,13.825,20.025,54.9,21.75,1202.0,565.0,323.0,574.0,875.0,1114.0,2727.0,1318.0,21.0,18.0,18.0,20.0,18.0,17.0,11.0,19.0,-0.6185337557734832,-0.5232474260356603,-0.2979559880538749,-0.39598009425209474,-0.3036058530549007,-0.10795818019779993,-0.1952650542771151,-0.3105004488891466,-0.31424195788290815,-0.14261322475776042,-0.04772412600618382,-0.23935210042584426,-0.4350107041903866,-0.6123801970155843,-0.41443334217649935,-0.5184106856888723,-0.7902261170546806,-0.7580645116243101,-0.6398025939223763,-0.3513419615864372,-0.5257097079079569,-0.3972023695424154,-0.6415954339733255,-0.562886015975925,0.019482518025201644,-0.15796970235597982,0.012460071493944472,-0.15320065291098692,-0.5387766235356848,-0.4216126281133114,-0.39670376479393116,-0.28633671138453326,0
15.35,8.25,5.575,7.675,8.325,12.725,46.275,18.425,1086.0,511.0,365.0,496.0,548.0,678.0,2633.0,1191.0,16.0,14.0,17.0,19.0,18.0,14.0,14.0,16.0,-0.7313397099265582,-0.6085262151943328,-0.6210770699787869,-0.355520908637068,-0.35486887708769876,-0.2651269027020563,-0.20983667428107933,-0.16942306793930087,-0.5417927644635472,-0.2713715714043747,-0.1327440511613557,-0.06349755309540615,-0.48547626266416394,-0.15948533388320765,-0.3977614793423639,-0.4197214024747469,-0.5521790889964316,-0.2556411657025312,-0.4901523050790172,-0.3473209689581607,-0.3205846533228318,-0.37316782467407167,-0.3775513345252241,-0.5459645927856492,-0.32635867570795435,-0.22653793104133188,-0.44565119726119345,-0.2581923698699446,-0.5025001990433097,-0.3499288505983999,-0.4788288494392337,-0.466311181337554,0
6.775,5.375,5.675,5.75,5.8,8.8,24.3,8.975,419.0,323.0,402.0,371.0,435.0,495.0,1357.0,513.0,16.0,19.0,21.0,13.0,21.0,12.0,16.0,17.0,-0.7698343393385834,-0.6375547732225524,-0.7648196033642986,-0.2539867986438593,-0.3956862689923781,-0.08553442377428001,-0.2390678016620686,-0.46666543120290116,-0.5577880560533373,-0.2793365256063594,-0.27519957323069383,-0.19108566655114567,-0.33823045126975915,-0.2720177797627776,-0.21995446094334162,-0.1743277351686278,-0.6342283542061816,0.08098131988230527,0.049925311932588014,-0.3425797026524213,-0.4565136538190043,-0.36717522350315457,-0.39780609600774686,-0.4332542921517974,-0.5177712558082722,-0.547465290314721,-0.6753509823555546,-0.17839102364261447,-0.357807525710534,-0.41785463927745176,-0.463646715745983,-0.2061587097835595,0
14.1,7.6,6.0,7.25,10.0,15.725,34.775,12.1,826.0,521.0,387.0,434.0,620.0,823.0,2059.0,717.0,14.0,16.0,14.0,15.0,21.0,14.0,16.0,13.0,-0.6050273893525218,-0.5577862077735766,-0.647758782872275,-0.45857820096987506,-0.37609906886206995,-0.15447597225034426,-0.22707032649719877,-0.21964289378646995,-0.4978243873057938,-0.39329365087814877,-0.6315508982433135,-0.416629415113119,-0.44716236912903423,-0.6530397460604895,-0.456516955388194,-0.754099786854351,-0.42285633566299885,-0.3123132061539563,-0.46385275111948315,-0.17418189984830137,-0.25467721111905123,-0.457911248181988,-0.38316667112742864,-0.37293238477183793,-0.468740203558843,-0.6236643038503027,-0.5243226906853206,-0.6350597035338554,-0.3015460382591585,-0.19185932869630848,-0.18333507889760653,-0.3981120123796195,0
22.4,7.75,6.575,12.0,14.5,23.8,56.4,24.825,1428.0,470.0,447.0,698.0,799.0,1209.0,3182.0,1700.0,20.0,14.0,20.0,12.0,19.0,15.0,9.0,18.0,-0.591157660890785,-0.7074395112463137,-0.5246108541089314,-0.6237783882379169,-0.30251678400895604,-0.41568844260382054,-0.4472185955130812,-0.4682916299014365,-0.5569544534512502,-0.3934219922788958,-0.4417787617210354,-0.42295357162819275,-0.22830347553226227,-0.40336663203878875,-0.34343282545678094,-0.4801241983758286,-0.314511699501715,-0.166377000042664,-0.43543585423590864,-0.35295685629820894,0.01809965094675205,-0.37258668112130755,-0.09834829012166069,-0.4215953275268151,-0.2895010317826119,-0.4350612924417809,-0.3568067556147725,-0.5389356640273048,-0.6357388129347536,-0.42632275848242307,-0.499306954553853,-0.47459753306729,0
27.075,11.2,6.45,11.6,12.5,23.075,55.25,27.625,1799.0,719.0,439.0,775.0,819.0,1297.0,2939.0,1717.0,18.0,19.0,20.0,20.0,19.0,17.0,12.0,15.0,-0.796488545692097,-0.7615276216737563,-0.5516615343332341,-0.36902445341140977,-0.48614336232009153,-0.08575674228787844,-0.30426345888227524,-0.400922716033106,-0.8302335492104654,-0.6596137326295431,-0.42199736177403685,-0.18341272189889674,-0.625150852944956,-0.4854141416162539,-0.4957389822990707,-0.5585910171369074,-0.638439945049688,-0.4628212140910938,-0.4632983042321089,-0.43541383861241617,-0.19342134586975224,-0.4792676109404256,-0.19262796973390112,-0.46404755475676457,-0.20645970197016583,-0.41364590279147817,-0.1984717039872317,-0.35171196113347186,-0.386910469611126,-0.4583398171316255,-0.37597125975316564,-0.35850918270949267,0
23.0,11.9,5.65,8.45,9.25,15.15,52.125,18.175,1642.0,828.0,393.0,575.0,599.0,948.0,2674.0,997.0,20.0,21.0,21.0,12.0,16.0,14.0,15.0,15.0,-0.5372125415714342,-0.17752537593281775,-0.4084199191431212,-0.16631366492304148,-0.6270167043445349,-0.11349326060612394,0.049368007203811855,-0.09821135976804202,-0.6226908781096592,-0.36085673031684534,-0.2330651567518994,-0.2157231529630904,-0.6487477359161181,-0.48163544148573695,-0.2950812665968376,-0.2967121834411196,-0.47446544972846566,-0.14933024389638216,-0.0377268636687329,-0.23170778566785585,-0.23074009529071093,-0.15879911981361225,-0.3140628072215637,-0.32109944731405676,0.024160774336167916,-0.44865258912454514,-0.017025468028867043,-0.5013054112209523,-0.33665922973848045,-0.37714379845944895,-0.26606019726449043,-0.3048285897261714,0
20.925,8.425,5.1,11.625,10.425,21.7,64.975,25.6,1483.0,567.0,334.0,736.0,611.0,1380.0,3853.0,1565.0,24.0,23.0,17.0,15.0,18.0,20.0,20.0,18.0,-0.5549435972271529,-0.16490847575227358,-0.23778963635615027,-0.22987408698594214,-0.5089702331286544,-0.35638205494186886,-0.11536655316168729,-0.23217970948070127,-0.5682805898184079,-0.3379593723061281,-0.25038976186089973,-0.16960265688625456,-0.6413802085115851,-0.6939815542929931,-0.4802406560235842,-0.5363717855098575,-0.3727946673698771,-0.17807509075269695,-0.24768804180722945,-0.2765956297957377,-0.49713359053799183,-0.4561728588822445,-0.5056219373498443,-0.4351599581431984,-0.2932382587930896,-0.11382037225573738,-0.1522275462294559,-0.4543316505307266,-0.5785845758606784,-0.49454879224794007,-0.41286655806638867,-0.3406195243342779,0
27.95,9.225,5.675,8.6,12.1,29.875,78.3,37.1,1830.0,547.0,379.0,539.0,735.0,1684.0,4511.0,2431.0,19.0,15.0,18.0,14.0,17.0,14.0,17.0,16.0,-0.5738761449563332,-0.7229394967559492,-0.16285101236894975,-0.2863312408332573,-0.34421471258306785,-0.43557165002578785,-0.1863859742954119,-0.09347856652638235,-0.3871512878815514,-0.2809230165405181,-0.2202867413998602,0.07456661587203803,-0.6288411070890301,-0.5526823962154439,-0.4033353892110094,-0.41853014505162417,-0.6682752473954138,-0.6817676782981454,-0.6804893535620988,-0.62125800914479,-0.5324733945398498,-0.751443944326519,-0.6360189398929776,-0.6902486194519736,-0.38487677479543303,-0.5740854653586378,-0.2298165023380023,-0.6135021312792601,-0.6988609840997709,-0.669486245047404,-0.4292393518783023,-0.45091856318439494,0
22.3,10.25,5.975,8.35,11.85,26.75,68.775,33.325,1495.0,573.0,398.0,488.0,780.0,1561.0,4460.0,2197.0,18.0,15.0,15.0,19.0,18.0,15.0,21.0,19.0,-0.581611028087215,-0.16519829666970828,-0.21929470849308041,-0.13827907123832572,-0.4654680896254535,-0.5202658355288972,-0.5797719711710162,-0.31727380463264565,-0.49880289073678824,-0.30595633923238275,-0.48317096034510026,-0.5195128315618267,-0.5513511438415392,-0.49896639033761975,-0.49594418348859476,-0.5936698413983187,-0.7112533425033855,-0.64078236234752,-0.6283956232108694,-0.6244568351913242,-0.30987816268056656,-0.5911610143065424,-0.4139315112182135,-0.544842997111478,-0.620041974511699,-0.4103366684172207,-0.39401116161168453,-0.22164400279415564,-0.7215319451845903,-0.604314159837085,-0.44179258632386975,-0.47873685764955864,0
20.95,6.75,5.3,7.65,11.675,25.825,57.275,26.8,1380.0,456.0,358.0,399.0,639.0,1536.0,3617.0,1707.0,19.0,17.0,20.0,11.0,15.0,17.0,18.0,19.0,-0.4939142963582319,-0.2440587302618558,-0.1977811553605372,-0.33776727302662213,-0.49222460454617517,-0.18661633552319074,-0.26949418775377465,-0.08564596227398695,-0.23143563300084916,-0.17708321511671155,-0.06568711661582328,-0.37383234443761,-0.07856548574909455,-0.1523465251405882,-0.5367829475464339,-0.11708788548240757,-0.48360499692460485,-0.4073678382358446,-0.12223055941781566,-0.10646615581109482,-0.2382053620072474,-0.295081570429328,-0.12664590089634023,-0.35007383611475806,-0.5360280251853643,-0.2423366299474959,-0.4512156763896769,-0.2783805130021036,-0.4422909904836362,-0.25488377159713593,-0.03742833074315274,-0.18824937809567263,0
21.0,8.85,6.975,7.475,16.2,26.0,50.6,24.05,1543.0,571.0,434.0,475.0,1078.0,1776.0,2525.0,1629.0,23.0,17.0,17.0,19.0,17.0,21.0,11.0,19.0,-0.7994280598083793,-0.5252737956581321,-0.44333169504315106,-0.38616879143895533,-0.4686994078227336,-0.4615812117467554,-0.12393774343950958,-0.2548334065904656,-0.4005384128901998,-0.3768179582488266,-0.2793685603495117,-0.518202427716296,-0.35000934420952784,-0.25298028160183084,-0.5053127547415099,-0.3523331003511202,-0.7885646562775247,-0.4239699176052544,-0.16089571744524755,-0.16455190910588643,-0.6019599637445242,-0.17090445925221578,-0.16371566012339037,-0.3220275357225534,0.018892384674437237,-0.2164505321307389,-0.18185267018104878,0.13468234185597874,-0.6237697197114342,-0.4343758098098683,-0.14141935934329722,-0.15194400120081517,0
20.95,9.65,6.15,7.85,15.4,32.45,74.45,38.675,1311.0,591.0,345.0,534.0,936.0,2087.0,3439.0,2591.0,20.0,15.0,17.0,18.0,18.0,15.0,13.0,17.0,-0.6228551089229974,-0.6440891101493806,-0.47461264975697554,-0.5289769676338951,-0.4320159033091636,-0.1520449642371776,-0.296159046183172,-0.2710350073663904,-0.4266908267905706,-0.30309911093258624,-0.28300775428865665,-0.5001767588483943,-0.3060531501117076,-0.2036139226287616,-0.21961919173072336,-0.3431418278534472,-0.2549437766362866,-0.428881226840818,-0.22723089815276293,-0.46504080576710305,-0.5173943385949427,-0.37651669331007076,-0.5371964425721262,-0.43803252176483215,-0.0431553187050253,-0.05104112075069115,-0.30601999927511586,-0.14892032103362982,-0.6429335033493755,-0.2982278490202622,-0.3517103665552794,-0.3100175420239219,0
18.175,8.525,5.05,5.8,12.6,23.25,61.45,31.15,1182.0,535.0,343.0,397.0,777.0,1455.0,2945.0,1907.0,18.0,17.0,22.0,14.0,16.0,15.0,15.0,15.0,-0.7590340126114469,-0.8143581136799863,-0.5244863405854219,-0.2977826282981678,-0.11121556607665212,-0.27429933609282225,0.314613483788242,-0.329508303337658,-0.6288546137286276,-0.027470843487061015,0.23415379382424226,0.10157723025249599,-0.5647114795193836,-0.12580265848603914,-0.3868500944489103,-0.2799280242679418,-0.5137003505190426,-0.5062436607607507,-0.3666247502466761,-0.2917245251637416,-0.22307781639879923,-0.4566334604138454,-0.1771976328083923,-0.22186143811926962,-0.0020830712093632417,0.04649098283956922,-0.008017455536426181,-0.15754259191201225,-0.3389111513543539,-0.31894887652386866,-0.17472638978799063,-0.058754084152338425,0
22.65,9.425,4.375,4.05,10.6,19.775,58.075,22.3,1544.0,618.0,259.0,255.0,630.0,1282.0,3545.0,1370.0,24.0,16.0,14.0,15.0,15.0,16.0,19.0,11.0,-0.7374304862427257,-0.5336966141921176,-0.5720654591170017,-0.3047882149484557,-0.6044112280458477,-0.5673885882876464,-0.5860500322776564,-0.33912288619237274,-0.4046132510091562,-0.26516751862217935,-0.29679396938706937,-0.26446565216485346,-0.34624015496485644,-0.33452706419516354,-0.13617730921028745,-0.26988002832067604,-0.7586258442999432,-0.9121886895432736,-0.6462314132235956,-0.5255216020328842,-0.551432248450008,-0.7158088363983987,-0.2400779986615767,-0.4309497029587894,-0.6712302878932885,-0.38578999266075026,-0.0538236338598791,0.12888256301151307,-0.26518548656339813,-0.3929810121521073,-0.09390439031426852,-0.2016989584240469,0
18.825,10.7,4.125,6.85,9.275,21.175,54.85,22.25,1228.0,688.0,209.0,451.0,599.0,1251.0,3366.0,1298.0,19.0,17.0,11.0,18.0,18.0,15.0,17.0,14.0,-0.6451615188577785,-0.4021734387299829,-0.4891045429943578,-0.592701913910769,-0.5269604998754951,-0.5459120848983826,-0.44251040908259115,-0.32664104014364254,-0.17842064871367377,-0.4317637723016776,-0.20022304000363386,-0.5570622454407252,-0.10593578644644414,-0.251612179596826,0.0725112182087457,-0.48221599445767616,-0.6072018835017148,-0.4336068339589206,-0.27927761819637975,-0.25229451946398235,-0.3856281037654174,-0.6357025180625481,-0.33959223758594864,-0.5767292167773667,-0.34393550630653924,-0.07458385470545519,-0.08462080641649347,-0.07609460150192597,-0.3906224710851161,-0.5240034548956747,-0.33518411029860123,-0.5719489289721322,0
16.5,9.425,5.125,7.925,14.7,28.025,74.025,33.7,1045.0,631.0,323.0,581.0,873.0,1598.0,4904.0,2107.0,16.0,18.0,16.0,23.0,21.0,17.0,22.0,17.0,-0.448896245906131,-0.34611609442740743,-0.25900665609570567,-0.25342411804652065,-0.5792245824285699,-0.49193654903340717,-0.11780492687093184,-0.18022660680493366,-0.4416556933246985,-0.35762972640940094,-0.4290127915539753,-0.23581650206084415,-0.7246635407564473,-0.28290968246278747,-0.40493663367416216,-0.26564479241541217,-0.44105037042259326,-0.5358171327658506,-0.3777410612358686,-0.542461208149863,-0.21314567793669625,-0.42951984820703204,-0.22341344157041662,-0.44589730916195786,-0.6060711577228074,-0.18242493866707749,-0.15468838874841184,-0.17210576888560047,-0.42074786927199564,-0.15178638578560072,-0.35532465029048127,-0.37620294941732807,0
25.3,11.325,5.15,5.15,13.45,21.0,71.875,27.15,1552.0,765.0,333.0,312.0,887.0,1161.0,4122.0,1691.0,21.0,21.0,20.0,16.0,21.0,11.0,16.0,18.0,-0.3712930455887598,-0.15858338772333977,-0.32082407281034897,-0.26267871291083783,-0.6081601485283457,-0.46842580678773166,-0.3045268181597509,-0.5099847607594825,-0.36868000058071404,0.1389380860421224,0.030571897393247446,-0.321646825703254,-0.30131742904002023,-0.20959678956558622,-0.21376441723448592,-0.24110616798111298,-0.6158396713282368,-0.4420679379961939,-0.3606738791705206,-0.305601312649619,-0.1404352002207953,-0.23076378158496771,-0.20537101326610535,-0.32594605951001926,-0.32843650310484,-0.14372845293532924,-0.21843727595032292,0.05964973980500483,-0.592360976772822,-0.48754812526440966,-0.4034314011719055,-0.31707536682734555,0
23.8,9.025,5.15,5.575,13.725,23.85,64.8,27.825,1670.0,630.0,306.0,365.0,888.0,1435.0,3784.0,1956.0,17.0,21.0,15.0,16.0,18.0,14.0,15.0,19.0,-0.7603925216151481,-0.4763642487468264,-0.30559584315205823,-0.25672765664781294,-0.3641648020374718,-0.07835614219175886,-0.05733284796743117,-0.20390440083313469,-0.24417216852483375,-0.14333743373323077,-0.06323528054808532,-0.47825085175403964,-0.49049431954086536,-0.403083908522274,-0.5563877665425495,-0.21604256501760347,-0.4370526085910073,-0.19571804073435314,-0.022826580784660582,-0.3315063922859784,-0.15431858856961342,-0.08605138699456077,-0.04821906068852759,-0.25268438924119047,-0.21742022200567662,0.08637098515605088,-0.050526424346227096,-0.24680241629968833,-0.6292451386518847,-0.3867771469082515,-0.09064101614323865,-0.1493734767499329,0
22.025,7.95,5.95,6.15,11.7,20.35,61.5,32.275,1534.0,501.0,392.0,401.0,682.0,1294.0,3552.0,2118.0,20.0,16.0,14.0,16.0,16.0,17.0,17.0,21.0,-0.7600077128091134,-0.6184325988090058,-0.6483938691057668,-0.3155351484259239,-0.375720707060225,-0.2111963503118899,-0.3037360289959206,-0.3552637235137989,-0.44397735303556984,-0.31945986262441534,-0.41162078123964263,-0.5685691013239311,-0.21768519065564967,-0.115913361374496,-0.4626566675495568,-0.1629557071275886,-0.5409956841641249,-0.7294070774601741,-0.5098527854229904,-0.4956714102243604,-0.30311402023174117,-0.5893299977146559,-0.2787694975209589,-0.4126316516677209,-0.40337399603404916,-0.37766560276272654,-0.3224319760912146,-0.2643961631405443,-0.549045296426323,-0.4346984726350346,-0.2644830911502957,-0.3059048966236721,0
22.425,9.975,4.825,5.375,12.075,17.85,53.1,24.1,1464.0,638.0,335.0,341.0,817.0,1070.0,3610.0,1554.0,21.0,17.0,20.0,16.0,20.0,14.0,20.0,20.0,-0.6786148392605753,-0.4796843356199634,-0.40167364266844535,-0.31606826951100125,-0.4001840620296001,-0.4279455169159113,0.10614203588946723,-0.21589580831067584,-0.9304559112372472,-0.8976182186762601,-0.4880887732906813,-0.3823770820823823,-0.3091852431848069,-0.37855817854593304,-0.21665645615763257,-0.13237411775528296,-0.6845722604209831,-0.45732204156197126,-0.46261168966793803,-0.35331549149026537,-0.38488172255189046,-0.28037118837377245,-0.32640363361825403,-0.20471041067270715,-0.5517864543200198,-0.05444570331089216,-0.3151000726735428,-0.4154734094502468,-0.4477016628550537,-0.21439323682273737,-0.3983749150149451,-0.24477122406261712,0
22.75,8.625,4.2,9.575,12.725,17.4,39.825,19.275,1503.0,564.0,281.0,629.0,763.0,1014.0,2467.0,1193.0,16.0,19.0,16.0,12.0,14.0,13.0,17.0,17.0,-0.7595779875281633,-0.5421268051185159,-0.47713328283920287,-0.11305989309608279,-0.431877472256303,-0.2703588414515059,-0.23757874995489853,-0.13933041885106,-0.3038348225887441,-0.22266681286143283,-0.4739768248003239,-0.2877195525639724,-0.45785349171355144,-0.414812730807716,-0.3733245012833386,-0.36537223667517726,-0.2546336476797203,-0.3824718721104938,-0.0851460770277116,-0.31493200262447557,-0.030281600045484518,0.1792445918994542,-0.11726554952141445,-0.4375122284599002,-0.37336816586049976,-0.2731789495286206,-0.08556478856449128,-0.1904424985724384,-0.29043419180548313,-0.1955768534528296,-0.06696137326693058,-0.2158781212358953,0
14.475,8.225,4.625,9.825,9.975,19.025,42.625,16.575,925.0,497.0,333.0,592.0,504.0,1245.0,2628.0,1145.0,16.0,17.0,18.0,14.0,12.0,18.0,14.0,19.0,-0.31626170431335265,-0.3272232377658545,-0.11851068411917423,-0.20661494795017143,-0.26408446651480655,-0.16567652312302555,-0.017445922305070655,0.014332728019125518,-0.5024602819078446,-0.05257654646973673,-0.016588080910925986,-0.059139097797114216,-0.47433791074836534,-0.3539305350232125,-0.3544433897549137,-0.21235915636726757,-0.10617035949222707,-0.22745803186977262,-0.47932424923393074,-0.30051264034996755,-0.1424600678027327,-0.02779315053064997,0.04082674583871174,-0.4815275221537728,-0.3535714258196225,-0.2294913782258683,-0.3217470752576225,-0.45886488771341666,-0.6936769011279381,-0.4572212263731075,-0.3303126720663482,-0.41999328661958246,0
18.025,9.725,3.45,6.075,8.15,16.275,45.575,18.45,1204.0,610.0,221.0,370.0,440.0,915.0,2957.0,1186.0,20.0,18.0,14.0,19.0,17.0,15.0,21.0,20.0,-0.6371670898538756,-0.5759601586258024,-0.41005288951644,-0.08471771936066508,-0.51192604605198,-0.30590237381121044,-0.09485129119929614,-0.2690428247285872,-0.15943921786319787,-0.35383505978206187,-0.0884703178230707,-0.1465875574506367,-0.29581206057713316,-0.08226138655636347,0.01468095045467008,-0.21387160532600855,0.10617259554629606,-0.3711997774647515,-0.027428369819630084,-0.1782465194771882,-0.12419041079592492,-0.23458987299065404,-0.28220387656646045,-0.37295094970576254,-0.31217187351839437,-0.2085130403054319,-0.0947158076781995,-0.4498248112858615,-0.541660908932667,-0.2689843870918195,-0.1018896873242261,-0.2792447673871391,0
22.75,9.55,7.6,7.675,7.65,19.85,35.15,18.775,1423.0,649.0,496.0,501.0,522.0,1336.0,2280.0,1116.0,18.0,15.0,19.0,21.0,20.0,19.0,17.0,17.0,-0.31790364143416705,-0.5676582295822834,0.12277398268645678,-0.19283948852607039,-0.7535912489648848,-0.6510994936318854,-0.5615086613486369,-0.4654579758873315,-0.8345173176618109,-0.9605972184456181,-0.5720216073559097,-0.4881942849787876,-0.4852139980285478,-0.47096837395032326,-0.29434603270309845,-0.27062142396480715,-0.5694983977560717,-0.5654714163782745,-0.27072224415434754,-0.3537903307647729,-0.3249582472772568,0.003768414565231628,-0.17904864506238288,-0.4663184721309139,-0.3440427916995619,-0.2577856706479545,-0.17923040958362227,-0.30469617803514426,-0.4586986042867749,-0.4771817191711356,-0.2757469835960193,-0.3053842669278196,0
17.55,8.45,6.575,5.6,8.55,13.375,40.475,12.175,1100.0,469.0,445.0,321.0,555.0,881.0,2768.0,849.0,16.0,17.0,21.0,14.0,21.0,15.0,18.0,18.0,-0.32648586337488406,-0.3212589734028269,-0.2625479361992178,-0.30927103373014453,-0.1689967723890396,-0.38449086617637457,-0.05325992913135875,-0.30778350370796037,-0.9180268839245672,-0.922920736550132,-0.6165541211124402,-0.34074853490556894,-0.16297076653134476,-0.41736023318362797,-0.1932365125565325,-0.3142581218441978,-0.7485602261257889,-0.5693745846595669,-0.24964797895417992,-0.10843248624169477,-0.6754599337486307,-0.560956868991892,-0.3968874325103579,-0.20589203128526515,-0.7279300337313372,-0.5713421592293841,-0.48919497489436314,-0.24810761509481177,-0.6280913250523078,-0.42828089946888104,-0.18713610484249016,0.060721882565775855,0
16.95,9.825,4.675,6.85,8.025,14.575,35.6,11.525,995.0,630.0,286.0,447.0,488.0,763.0,2028.0,654.0,17.0,18.0,14.0,18.0,19.0,11.0,15.0,17.0,-0.4216558246342147,-0.3621245826211952,-0.4535679253081615,-0.19606539621837898,-0.6207225324768441,-0.39298342467548075,-0.49302983403703854,-0.3327239544105515,-0.2859783582436045,-0.5360982209774815,0.13464661427457417,-0.05108652443783922,-0.4602356668058947,-0.31300597521016216,-0.33341593859320096,-0.24319371397070036,-0.2661293713206244,-0.23731693102687326,-0.11726785466656643,-0.21834071603117605,0.019228838368768063,-0.181031347252405,-0.3693957261013179,-0.11668947865957101,-0.1996787073979451,-0.290630006906663,-0.16341159951961942,-0.2934841954383537,-0.22324749044543832,-0.2896219415951268,-0.37609003263907403,-0.16495496774253696,0
19.575,9.0,5.1,9.075,9.975,14.7,34.4,10.825,1304.0,641.0,301.0,576.0,549.0,811.0,1934.0,666.0,23.0,24.0,13.0,15.0,17.0,13.0,10.0,17.0,-0.6513641054270872,-0.09137297849416777,-0.4110902880640532,-0.4430113743640994,-0.7067629674714848,-0.13894418364039068,-0.22053456440168764,-0.1736536593015875,-0.342484906255391,-0.32446069264599875,-0.4213551803571766,-0.25455357884193436,-0.4939485763956443,-0.3432417018961207,-0.49385542534999655,-0.23685466373449066,-0.12533468864931255,-0.37843013085349736,-0.13477284161531924,-0.2447531535700335,0.031151587337294385,0.00726626320973171,-0.19155487129685625,-0.2615593081817133,-0.35020139209545714,-0.24361891558302523,-0.2965570382714818,-0.2192056984705924,-0.28500346031112855,-0.5322525332699269,-0.16714902413652402,-0.17222490138823932,0
22.55,7.65,6.475,9.025,9.05,12.15,34.15,9.525,1512.0,436.0,404.0,583.0,495.0,755.0,2111.0,634.0,18.0,14.0,20.0,16.0,18.0,12.0,20.0,21.0,-0.6995554621658221,-0.34073872775067765,-0.20215463661779687,-0.39254580376706527,-0.1810306678282609,0.07053209119730285,-0.26875300412156766,-0.29518760744728445,-0.4694706524991906,-0.4003470341171022,-0.18808627726992394,-0.3940064705974158,-0.5365160380894641,-0.49421617528170037,-0.31125134879013017,-0.38625148692939937,-0.27218377581892306,-0.35824611631767633,-0.36325440382143714,-0.2785188550462437,-0.06668707026971508,-0.004486786269801975,-0.3326477718240401,-0.24711244647171135,-0.3189645081001045,-0.4116576750768044,-0.15601272443401107,-0.28606025159603576,-0.4467068249284558,-0.20993615086442927,-0.4185542235383506,-0.2756258236573798,0
21.5,6.9,5.875,8.375,10.025,11.825,27.9,10.375,1450.0,416.0,395.0,551.0,697.0,704.0,1663.0,635.0,18.0,16.0,20.0,22.0,19.0,14.0,18.0,15.0,-0.7375736782332885,-0.4343859540880306,-0.35369367242184035,-0.14433977260781156,-0.27259265035761726,-0.39905384397594107,0.2134212555121308,-0.22676979117648255,-0.3904345467967084,-0.11981462496800349,0.06127734675453191,-0.12480767495635522,-0.5740768544378169,-0.3276398945736103,-0.38504172175578694,-0.3686027867923839,-1.2615721152588781,-1.0380069472523639,-0.7353527120937855,-0.29028630890575635,-0.22361055076871145,-0.2960164819592438,-0.1587460996050095,-0.14749261567415325,-0.3768439967152133,-0.3273043562899983,-0.40418010475351335,-0.30155853635534846,-0.35122205795862893,-0.3581831637748338,-0.15602902182354167,-0.2473039910154971,0
20.025,8.025,5.4,8.425,7.5,12.425,32.025,10.275,1398.0,569.0,350.0,545.0,489.0,787.0,1967.0,620.0,19.0,20.0,18.0,15.0,17.0,16.0,20.0,17.0,-0.783748204476382,-0.49561847577774,-0.2843811697114126,-0.18728236275497226,-0.666000477218462,-0.3511819344340039,-0.13127890681101476,-0.27988666522563155,-0.29021269337342775,-0.31270111327147115,-0.1008296579508258,-0.3581311203297114,-0.5630190537269766,-0.1908699489610699,-0.4163408364098496,-0.5074143850027509,-0.6945078422363972,-0.3819709410921747,-0.15829136597774138,0.06404106604869937,-0.5235982983934863,-0.33595841134347143,-0.5259927219111272,-0.1649258263327814,-0.5087652092038691,-0.4197699204183676,-0.27673930555872756,-0.3424815718876877,-0.38211410426586245,-0.3157178138791349,-0.16722188615829947,-0.390397866737837,0
16.0,6.975,5.025,6.425,6.625,14.175,39.65,11.5,1013.0,460.0,294.0,424.0,414.0,708.0,2312.0,725.0,23.0,18.0,14.0,18.0,15.0,12.0,14.0,18.0,-0.46613985508526307,-0.3767210418967686,-0.33384587015470424,-0.4176218001991553,-0.2706450057169444,-0.22998148728933804,-0.13283868227562348,-0.14594887469534526,-0.10741211185641977,-0.33828302790705805,-0.20336225635980848,-0.14052800506761642,-0.4220217799420354,0.0684210275378738,-0.3330768395031705,-0.37743792510141505,-0.29376603127362433,-0.32869488821594234,-0.0851602653682314,-0.26036197804353495,0.010651701966644223,-0.13512372817569404,-0.2270198788818828,-0.1513068456848455,-0.22083024900167778,-0.057508996354650774,-0.38034280355249556,-0.16409186444994245,-0.34811856046183315,-0.23848754889601426,-0.19872657415339756,-0.2815226603117662,0
16.925,8.275,5.075,8.375,9.825,14.525,35.5,12.15,1023.0,510.0,346.0,537.0,638.0,802.0,2153.0,813.0,17.0,18.0,20.0,20.0,19.0,14.0,18.0,18.0,-0.4952878843318979,-0.549802249869663,-0.34523803855434876,-0.2042506276723539,-0.17521468568033252,-0.38075506313697044,0.0008213926303160398,-0.11900987766161196,-0.3220416091039571,-0.16334899414008644,-0.20934687298223173,-0.2885174640046999,-0.5392979168094407,-0.3481782451326299,-0.37584677674370337,-0.25725360500830374,-0.5206210132554966,-0.21761395589572105,-0.2922120024140485,-0.1864077964493857,-0.015760590676344992,-0.3724702388519756,-0.05658868002634577,-0.2835137769281943,-0.3351892857933483,-0.24719250031720164,-0.2559832362248003,-0.3560248558490756,-0.3412917752206949,-0.1950955518248069,-0.32694046957298406,-0.33629708112241724,0
21.975,9.525,4.45,7.925,9.0,10.95,36.525,14.675,1409.0,639.0,316.0,532.0,562.0,644.0,2444.0,919.0,21.0,18.0,20.0,19.0,17.0,14.0,22.0,17.0,-0.45660358603164336,-0.26018984293549174,-0.15170827899189657,-0.2151746155418843,-0.765266486794777,-0.7533336273218626,-0.3888096257561727,-0.2742583030894301,-0.4558635609507319,-0.12539536472065776,-0.12595649895997957,-0.21583249971803348,-0.5857227814131153,-0.4997996784741136,-0.12688101979245392,-0.06029370848536396,-0.5571794050794129,-0.3488020555060292,-0.4228845991094386,-0.16859863999663915,-0.07782923759273166,-0.3097512348758916,-0.056118233883665006,-0.4738349609394067,-0.5773352706489706,-0.18818592350283,-0.4471331744965999,-0.43900838735507985,-0.39166004656534664,-0.15040439208920905,-0.2936988126972319,-0.303639379348354,0
20.675,7.3,5.225,7.35,8.1,12.15,40.175,12.65,1374.0,423.0,328.0,458.0,472.0,637.0,2251.0,817.0,19.0,17.0,19.0,13.0,17.0,15.0,15.0,18.0,-0.6755809216563509,-0.4408917426926314,-0.46981630141420283,-0.37612075705307507,-0.40573478393531576,-0.5867846419671265,-0.3288342593214543,-0.3945655596636576,-0.6310485718087793,-0.43056526212007135,-0.20554940234952027,-0.20254447730820405,-0.4398813299278402,-0.6286842628916284,-0.2782875650536987,-0.4402497942307331,-0.40861112670407146,-0.0525715163222466,-0.38049363573536527,-0.24785423860689712,0.04184124122332826,-0.05459622749010624,-0.149814887254214,-0.23036309923780032,-0.32714450845183557,-0.3433596203929795,-0.40542941488616596,-0.12482546978835286,-0.5498962577976545,-0.25164800985401037,-0.30220137862561663,-0.2547846208206345,0
16.225,7.275,4.7,5.425,9.175,15.225,42.325,15.4,1085.0,453.0,326.0,341.0,568.0,780.0,2465.0,919.0,22.0,18.0,19.0,15.0,16.0,14.0,18.0,15.0,-0.6358925598325815,-0.48813517601153056,-0.26013504612312255,-0.15043254863172695,-0.30558235862986716,-0.17421118409580164,-0.19719410150183234,-0.020407625683312152,-0.6754437551769984,-0.2973698330863303,-0.1466628196329218,-0.21110935680848686,-0.3744468229816892,-0.1948113505704941,-0.1524578412851468,-0.22878684745462774,-0.553712559180743,-0.410544579571248,-0.3884006335752066,-0.2781566129261772,-0.00036542181644850076,-0.021148538162613115,-0.38248223163910955,-0.1649731634513413,-0.31078515073275215,-0.275280633641881,-0.18157859375254864,-0.3360744362306303,-0.2766540209266221,-0.14311834971309823,-0.13137105184725562,-0.1654713733932713,0
13.775,9.15,4.9,6.4,9.525,11.85,38.5,13.5,844.0,539.0,326.0,384.0,604.0,581.0,1977.0,836.0,18.0,14.0,17.0,17.0,19.0,12.0,13.0,19.0,-0.22086348217866575,-0.7493218981456082,-0.2522706424384942,-0.3764691600719131,-0.17489963893606864,-0.3682443651765814,-0.2174134727940716,-0.22676420116364143,-0.38323529840202253,-0.19086460197436672,-0.12202774289355206,-0.19177985125612895,-0.436346528210056,-0.17359597236825583,-0.21963113975068213,-0.29257805711278,-0.397859371300167,-0.35337288728717753,-0.06306171684586884,-0.2740191825697989,0.29008812304400583,-0.03702421489221768,-0.4158548454760133,0.05722479652869845,-0.013668881251268571,-0.15901027542966822,-0.40266955042327757,-0.1947555986954304,-0.24346177962603635,-0.4756985682784982,-0.23168445734866358,-0.2916498214991995,0
24.25,8.275,4.125,5.875,6.975,12.675,35.25,13.575,1735.0,572.0,299.0,379.0,486.0,801.0,2258.0,919.0,19.0,24.0,15.0,16.0,18.0,22.0,17.0,17.0,-0.7366894550046861,-0.35533489590212697,-0.5635379641636203,-0.37686991609705883,-0.606170242894708,-0.3753554318566479,-0.4431229729531844,-0.40650894132504617,-0.6210570701010945,-0.20349288929305367,-0.26628030073948816,-0.3297820826918959,-0.5474080869058506,-0.6631815087377091,-0.40612860203793366,-0.5327497765158558,-0.7380199147830164,-0.5210385355861655,-0.2891633850337058,-0.29610937981533864,-0.2590081817563153,-0.05178851873976688,-0.08680391585290827,-0.1751437449097356,-0.5926061711857507,-0.35057711989516716,-0.254290969569281,-0.029909178069112616,-0.7043288921608284,-0.5774633907941411,-0.24767206093778912,0.08924606934980109,0
23.975,9.425,4.6,5.8,8.575,11.075,36.175,13.225,1600.0,660.0,311.0,359.0,580.0,678.0,2179.0,922.0,16.0,20.0,17.0,17.0,22.0,15.0,17.0,19.0,-0.8854319132067868,-0.7192441661982452,-0.7667106722504518,-0.4020229251270308,-0.7210487536885838,-0.33826811015879416,-0.2776384596581906,-0.29453575772984936,-0.4722494325673,-0.6191460100421383,-0.20232264351755913,-0.3000868291967614,-0.5372258064745403,-0.56107163250515,-0.494135413381921,-0.6659235384370853,-0.7476390288664085,-0.32101789411785797,-0.5328128376050667,-0.5625679680855497,-0.4806696631600748,-0.2912696046782575,-0.3691357236625086,-0.3925200676488635,-0.473240765111389,-0.5465731584122884,-0.479016882508352,-0.248917101055224,-0.415008687113675,-0.08501900681807202,-0.1778766286718132,-0.15897169799709868,0
17.225,9.55,4.75,5.725,10.15,10.85,28.9,10.575,1166.0,696.0,303.0,413.0,702.0,701.0,1664.0,598.0,22.0,18.0,19.0,20.0,21.0,21.0,15.0,14.0,-0.7100390338412411,-0.4205659125782031,-0.33862167814675964,-0.1934808142787553,-0.7426270595517209,-0.4959534172445735,-0.47906744894343134,-0.26858320198270463,-0.5083134228394957,-0.27166408566574135,-0.16181573947961805,-0.07217612410969731,-0.5912966016275194,-0.24160039238116793,-0.24808577795899683,-0.3067519285265435,-0.766156098570529,-0.37795758305573424,-0.3119465617087874,-0.24546283595759183,-0.28754118625394637,-0.046153461708684465,-0.2618013635045822,-0.37658884863528946,-0.319427241646928,-0.40978785129405715,-0.27303733441947325,-0.49057117806537137,-0.26565683258238254,-0.2884481989780594,-0.3510444842990195,-0.3385163010620517,0
21.475,6.9,4.675,6.125,8.475,11.425,27.65,9.975,1552.0,433.0,309.0,417.0,567.0,644.0,1568.0,591.0,20.0,14.0,20.0,22.0,17.0,10.0,20.0,16.0,-1.149871213126235,-0.9570712997991868,-0.5842221907654067,-0.36352722239939805,-0.40107160640112305,-0.3392731603671809,-0.23822339482373148,-0.18530749221527223,-0.4099749228358279,-0.3844402544484038,-0.11685551029745922,-0.3057196018006231,-0.5058479408895771,-0.1936955186503653,-0.18581209667282225,-0.3648149025692608,-0.6786092737128433,-0.4416539617843264,-0.5956243324245925,-0.2918921335921742,-0.10887003003821379,-0.405497834424121,-0.17508639894102443,-0.3708612164393722,-0.10098598364533165,-0.2954251077079601,-0.2668908829940039,-0.3573740346240324,-0.373079549120788,-0.25216358421091994,-0.08864814303381924,0.03186092662773662,0
17.525,6.6,4.325,5.7,5.925,12.825,26.05,13.025,1189.0,386.0,264.0,364.0,438.0,771.0,1646.0,817.0,20.0,15.0,16.0,15.0,19.0,16.0,15.0,19.0,-0.873857119889335,-0.7681173681029236,-0.572231564866794,-0.3059358464308962,-0.2954336416910203,-0.16309944865518494,-0.09886676865573131,0.09211585477189459,-0.22794888305064265,-0.12734487252810064,0.13471274618625642,-0.18938948842404843,-0.38223250887125,-0.2776695299843792,-0.20633631848811906,-0.23221682915322756,-0.8257424482727255,-0.4508344320422978,-0.2000516466903254,-0.08092790663362318,-0.49531017318902915,-0.27019303738339934,-0.04676497658245462,-0.06021006655789792,-0.3360852417958062,-0.6737438927769417,-0.26392959445391906,-0.4891174817817307,-0.47575234709160963,-0.2196101121940705,-0.25408907169562966,-0.21770631697408718,0
18.5,6.2,3.9,5.925,6.45,9.35,27.425,13.175,1240.0,371.0,263.0,368.0,399.0,537.0,1743.0,807.0,22.0,12.0,14.0,20.0,17.0,15.0,18.0,20.0,-0.5809928233480285,-0.4954733019657595,-0.23618249044623602,-0.42828825234505086,-0.2743124335421167,-0.36061279338139113,-0.026693531709740072,0.055371599031156314,-0.661808612309629,-0.518118390623168,-0.3669503578077456,-0.30729475102831905,-0.4327287567369088,-0.4687159323972319,-0.25794868534730686,-0.42935816286445416,-0.6776417567226928,-0.6496660987529768,-0.532468934908402,-0.2091363759509217,-0.21484028324632382,-0.2783595502309135,-0.0550618506088303,-0.08026190776483272,-0.46951474403183957,-0.14715327236561188,-0.43077796946354596,-0.37327835799851883,-0.45779237828514596,-0.21681519590488044,-0.2090144756917578,-0.3516119008521697,0
16.0,6.5,3.55,4.825,7.25,11.075,34.35,11.125,1052.0,437.0,225.0,329.0,486.0,604.0,2120.0,670.0,14.0,18.0,21.0,18.0,19.0,16.0,18.0,18.0,-0.8224651804543723,-0.7351183103489816,-0.721464266252201,-0.6119943020709536,-0.49541340573721426,-0.3742086076375478,-0.12266635339161265,-0.1789546220157851,-0.5980591472483224,-0.34763417185911966,-0.5668560707943975,-0.4735351229592979,-0.42368565260234525,-0.27698653795410705,-0.21277988077757243,-0.03703034468523836,-0.8205310587254508,-0.7711896002182855,-0.34608644604378885,-0.15156547808963391,-0.23460268218698688,-0.24674103325449448,-0.22951245525332784,-0.16963098577032226,-0.4525140449406194,-0.514373906462809,-0.2854585688694531,-0.4690977279172793,-0.2975872692614715,-0.11065969939363271,-0.0721159575947543,-0.2622045832579819,0
16.5,9.0,4.625,5.475,7.325,11.275,24.675,9.025,1181.0,610.0,321.0,352.0,494.0,721.0,1422.0,545.0,21.0,21.0,18.0,19.0,18.0,20.0,11.0,17.0,-0.7064633830778906,-0.46370786962414345,-0.2034510305064223,-0.2671679793387213,-0.48454145877149696,-0.1891574865873696,-0.01730246222373688,-0.29566826826564024,-0.443685826525633,-0.4847095713777994,-0.2404999210027192,-0.3517577711941189,-0.5809987432234851,-0.54891530906172,-0.4746987477302374,-0.3549787118523895,-0.9377650929937474,-0.8229756271281052,-0.4484725970274561,-0.19338024673036824,-0.5107411371750418,-0.35663943200728304,-0.30352322939072285,-0.11418731357557374,-0.3421991572878329,-0.2592407212345619,-0.11429123229074942,-0.10200129295495186,-0.41587483290669847,-0.20215619673275534,-0.2967887478031635,-0.18210581372605567,0
16.35,9.2,2.75,4.5,7.3,11.9,18.225,8.925,1183.0,633.0,172.0,277.0,494.0,746.0,1056.0,592.0,18.0,19.0,17.0,13.0,23.0,18.0,15.0,19.0,-0.8524931044026097,-0.6531675733554214,-0.6096753948820657,-0.46891525648878307,-0.5613326420061511,-0.3173622186136446,-0.08661190846738447,-0.23534088358618682,-0.37317642888878905,-0.28760943593157984,0.0017517758989798282,-0.04841344794059897,-0.32510902084273363,-0.23454277816365254,-0.14913794206149492,-0.08163503837308905,-0.4845302983762595,-0.027505884470384583,-0.20683579516987735,-0.14243248312799814,-0.3439458051399294,-0.181778508954645,-0.2720847696962473,-0.3231726279768249,-0.15865862222567273,-0.4512188266125322,-0.2511891950998189,-0.3838751643614437,-0.3933725127691838,-0.21116101913247454,-0.3520268287837589,-0.4840717505519753,0
19.55,6.55,3.825,5.15,9.8,8.625,23.875,11.275,1323.0,431.0,258.0,332.0,669.0,483.0,1467.0,823.0,19.0,16.0,18.0,16.0,20.0,12.0,14.0,21.0,-0.82506090164201,-0.7931021507046694,-0.48678597982677785,-0.45547146990363147,-0.3933805772838076,0.006424398099126823,0.06689449927075732,-0.04374330287781059,-0.49778414860069214,-0.30497150102010234,-0.15795673406631708,-0.21067836094464373,-0.6434802223789416,-0.34144356803572895,-0.1578093581378814,-0.01845593543440605,-0.7996546392057543,-0.3951003643530895,0.04852781297798512,-0.004759658233549616,-0.12585246126852373,-0.3783979195638103,-0.35409099845356784,-0.08540115875914685,-0.4140039514920843,-0.21390640744681302,-0.5900247660723823,-0.3968348787246091,-0.49032987656019655,-0.04860483233221781,-0.21761275869628255,-0.38175656467699715,0
20.8,7.1,3.2,5.875,7.1,10.425,22.825,8.525,1415.0,483.0,217.0,368.0,457.0,580.0,1465.0,545.0,21.0,15.0,13.0,17.0,20.0,18.0,17.0,16.0,-0.612736485640614,-0.536925496049034,-0.3614528838148524,-0.5197085290351547,-0.45327932706911056,-0.31771331025711175,-0.23375918318389574,-0.31377086669961307,-0.4556173714524101,-0.4849999398328571,-0.2591846044292327,-0.2614053139931181,-0.5561025240986014,-0.3137456580396453,-0.3170183465663787,-0.33879263086694433,-0.7198308032922162,-0.6139382662522264,-0.1205006587789371,-0.10468418217308945,-0.1991990159096844,-0.2596193124587018,-0.26121277853492075,-0.3983834519516804,-0.3996064197213586,-0.32473182615588536,-0.4128826232228898,-0.34354952482148476,-0.21797366924862804,-0.35080556638548405,-0.09223093285434646,-0.29360182277756586,0
18.9,7.975,5.175,4.775,6.625,9.6,13.85,10.925,1299.0,559.0,338.0,316.0,425.0,599.0,949.0,665.0,17.0,22.0,20.0,17.0,15.0,18.0,18.0,22.0,-0.9197803901996402,-0.7766954819416793,-0.6024862500076476,-0.35108400633740744,-0.4835864279788103,-0.3504858934106178,-0.12587143486638724,-0.13257227462638854,-0.614715726456822,-0.35016016002836714,-0.5248034812840907,-0.3015959124115561,-0.5041761598963495,-0.4616690066918107,-0.3347409949682461,-0.12591121387584878,-0.7585470738383652,-0.39019459283668884,-0.4719084489141568,-0.38139946981093265,-0.42304806334954603,-0.22761284184199604,-0.0850639469378856,0.04538049737729597,-0.670614117962048,-0.909185262992123,-0.4193452027350095,-0.400591907324361,-0.41044454464976765,-0.1688028904948426,-0.09624416890489483,0.08327740801277299,0
23.025,9.725,5.45,5.775,8.9,11.775,23.975,11.3,1654.0,633.0,349.0,411.0,623.0,741.0,1557.0,782.0,18.0,18.0,16.0,18.0,23.0,17.0,18.0,20.0,-0.7746457634491944,-0.5577092007568168,-0.31376204967062343,-0.24720812790224422,-0.5923022373531038,-0.29827123272323164,-0.14153445022666172,-0.1687820826914574,-0.7279331936497648,-0.43895074794049055,-0.5607360909333888,-0.5478113898390514,-0.6340917950424183,-0.3292217272218623,-0.2052984280200168,-0.03461262171015595,-0.6982090927169132,-0.32562558322537843,-0.09201462997993705,-0.045247894856601474,-0.5374315867081402,-0.3453673905368978,-0.5133440267907917,-0.240100091874552,-0.6973670416694508,-0.27842942338279064,-0.4278610215063092,-0.40847615369370016,-0.5599091198134016,-0.15022969593134441,-0.14947970822248194,-0.1782343277148806,0
21.0,9.65,4.925,7.9,6.6,11.175,36.675,13.95,1394.0,571.0,323.0,549.0,486.0,746.0,2599.0,961.0,18.0,17.0,12.0,23.0,19.0,15.0,20.0,17.0,-0.5603445672286494,-0.2918622416885575,0.3065843610555992,0.08223536823376423,-0.4145863481413475,-0.31451085000927526,-0.10988016253546633,-0.08899918078711562,-0.804416855585646,-0.7210118990473047,-0.4798533185243218,-0.3634059440956268,-0.7644016537012821,-0.4626542551502979,-0.2362337919823059,-0.17197734941966122,-0.6234116830290116,-0.45361065485962293,-0.2161152260546528,-0.10650048137734482,-0.4308751498300505,-0.2161885004166262,-0.19141150236231166,-0.2669520849274593,-0.6171340548410451,-0.16900658743558586,-0.06745811982777533,-0.2910706302428106,-0.49681580234393535,-0.24284483220933278,-0.09386899090516891,-0.3270342249355208,0
20.1,9.15,4.65,8.225,11.2,11.975,34.825,14.85,1223.0,566.0,256.0,552.0,761.0,724.0,2360.0,945.0,20.0,17.0,14.0,21.0,19.0,17.0,19.0,16.0,-0.3415392543934644,-0.2466247264769981,-0.21024772021528274,-0.04345148318112857,-0.4323910384072521,-0.16489323504868109,-0.3303438595612777,-0.4736410142221912,-0.2150058658623256,-0.3104687002537555,-0.2782110554661951,-0.19432727258476987,-0.7885667974418411,-0.5313258499014573,-0.68188267021131,-0.41143775903154167,-0.752282125124598,-0.5872101766248405,-0.48055875248490254,-0.4606823044302604,-0.2297656413460203,-0.401761580402288,-0.3039584518192992,-0.28015073804449486,-0.5371614385769333,-0.3500965705528677,-0.09503220850897046,-0.15841551707830936,-0.38778891464214343,0.001514228414457154,-0.09374541595389081,-0.2980786073665272,0
22.6,6.325,4.425,8.35,11.3,18.025,50.8,19.85,1551.0,363.0,251.0,529.0,655.0,918.0,3361.0,1222.0,20.0,13.0,15.0,20.0,14.0,13.0,18.0,14.0,-0.6830499860795586,-0.514018747362501,-0.36770382111188804,-0.37717559547186225,-0.2289602672327611,0.08401555710497996,-0.052778277438009474,-0.06816473964620079,-0.36891019741014863,-0.5137321308842501,-0.36444920954127363,-0.4928201201915955,-0.53821785754952,-0.37155110158668364,-0.526228032557301,-0.28920093660825424,-0.46702029931806344,-0.359022113053551,-0.5624098289425815,-0.37804251226484936,-0.12327835023504752,-0.3130390376929643,-0.6032487819884236,-0.1158821875457733,-0.49329283875664137,-0.5420512882807895,-0.35635765099189715,-0.5971139447828191,-0.6520503419249877,-0.583255491104055,-0.6200026233297381,-0.47188655933730095,0
26.95,7.075,4.15,6.675,6.7,13.65,48.3,12.625,2014.0,406.0,264.0,431.0,381.0,856.0,3241.0,832.0,25.0,15.0,15.0,18.0,19.0,17.0,19.0,15.0,-0.9449119977039837,-0.600428583748822,-0.28345340448503925,-0.05921585670322742,-0.24888087150285954,-0.1653175163346124,-0.28269337046552956,-0.27912675776899076,-0.45619050503876984,-0.09231997103028572,-0.20100942163839597,-0.18394191126600815,-0.4568534522261341,-0.16410877403271582,-0.4409043391756148,-0.40458889839667683,-0.1704217113836223,-0.1304570455600809,-0.13815202475573182,-0.20864851464553094,-0.1978974029464567,-0.1837192284875251,0.04378976003982819,-0.2028626235119511,-0.5086209785337488,-0.6667499403358251,-0.2025122991901446,-0.4885634207014314,-0.5510151490469327,-0.400943754217268,0.002480057502089678,-0.03627611824027924,0
23.525,7.3,4.4,7.05,8.8,11.7,35.725,13.325,1673.0,485.0,269.0,496.0,589.0,710.0,2242.0,822.0,19.0,16.0,16.0,18.0,21.0,19.0,16.0,18.0,-0.7824130765742845,-0.45343688547050054,-0.37859636034711563,-0.18241029826960675,-0.4601856392124298,-0.13429382265799877,-0.06709198389320616,-0.26585287847801237,-0.437594044822361,-0.43278437457893576,-0.4065925047493173,-0.10823880140040518,-0.5269714588896848,-0.3899188569104067,-0.2507797901815773,-0.607857840202097,-0.6329770549087096,-0.4931691553916996,-0.13913880180320393,-0.22046444105320448,-0.03919774103154246,-0.3039694287219765,0.008159973059882891,-0.40457284536201527,-0.3978475229645967,-0.26537970323717486,-0.2640376057797296,-0.4674439072402675,-0.4106493560310666,-0.045667487875700095,-0.22041713866258383,-0.15783187238114416,0
17.075,8.675,5.55,9.9,10.975,15.35,35.6,15.35,1076.0,641.0,344.0,650.0,718.0,821.0,2010.0,914.0,19.0,23.0,17.0,19.0,18.0,14.0,11.0,14.0,-0.6618055016839777,-0.5569012193887513,-0.27311752434861775,-0.02167793474530321,-0.9156146673652182,-0.4887748331516467,-0.1052886465178531,0.026624517836049633,-0.4779142726570865,-0.4347923345389039,-0.2742422675946787,-0.24404524072815229,-0.5157177845762606,-0.4063734855181602,-0.18760532647298467,-0.3430026231949417,-0.5950549790699221,-0.2998775767813872,-0.13138536809334458,0.023912705904458504,0.007975050256695539,-0.008564845186542287,-0.3800269682231309,-0.18483093231761225,-0.2028301829506816,-0.19829764825136112,-0.3071479919294854,-0.34811102511620323,-0.3657137284741241,-0.13845130298528163,-0.2736031658100408,-0.2552918229451185,0
16.25,7.0,4.7,8.3,8.6,16.25,37.65,14.125,968.0,399.0,259.0,464.0,558.0,895.0,2126.0,751.0,19.0,14.0,12.0,12.0,14.0,12.0,16.0,14.0,-0.12299644888311305,-0.23303017384265995,0.05540951236077379,-0.17089684749647274,-0.36105445357594396,-0.3094108317133689,-0.4985602360519851,-0.20468456410266414,-0.23007788318138248,-0.13642432704600616,-0.29461875238183416,-0.34027860073158034,-0.096509957558655,-0.11986871845363571,-0.1873067686848864,-0.2305825079714664,-0.4845704874977595,-0.5245032765565247,-0.38910832009499874,-0.12008371417200439,-0.2242154260878065,0.022417686134935895,-0.29813804068416483,-0.23009281806781276,-0.2746014519880835,-0.18413375816026722,-0.23326438496832166,-0.2933736961014314,-0.11674950978829553,-0.33270214475666604,-0.2468953681661152,-0.17721531631653886,0
19.775,8.9,3.775,6.675,7.125,13.775,34.0,15.0,1306.0,532.0,230.0,393.0,476.0,958.0,2111.0,918.0,19.0,16.0,14.0,18.0,19.0,21.0,16.0,18.0,-0.46787546405616676,-0.6583916216716575,-0.2640842024237666,-0.46883567485148664,-0.4776051332188171,-0.3954059636001531,-0.35949910972144633,-0.2562368185844527,8.497712417504423e-05,-0.19363592685548064,-0.2424555305061729,-0.35133668304712856,-0.3452069553263359,-0.47250020129195225,-0.2768751988123924,-0.407180948170014,-0.4783284149638727,-0.14989795409313883,-0.24708364311972955,-0.17292716105805536,-0.5270379127360224,-0.35662543136547986,-0.27655354164372065,-0.4266951733307643,-0.5269242882190481,-0.1684522863027304,-0.34656165286355306,-0.5123965590329157,-0.46989019843437096,-0.44003634853721,-0.4619896228644939,-0.3840805850540264,0
18.075,7.225,4.725,6.25,7.975,9.775,24.175,10.975,1199.0,463.0,294.0,433.0,488.0,646.0,1657.0,573.0,17.0,18.0,19.0,19.0,18.0,15.0,21.0,17.0,-0.6228871389503066,-0.6402327278762671,-0.3726526141872163,-0.28090889341561287,-0.3004574612203777,-0.1458221689912889,-0.3011960475745208,-0.051385680990813455,-0.3098604055453295,-0.3156396251842575,-0.14495701221955926,-0.32114724531876326,-0.7424242463452646,-0.46498637127786996,-0.2580688873690981,-0.0632468709379124,-0.6738084869957741,-0.5557847339085327,-0.3758575816378106,-0.20476387698187729,-0.3815322122061492,-0.35861512850538146,-0.2574705915733746,-0.1299109990174778,-0.7181024082316081,-0.5807517960052898,-0.35164377021146953,-0.305634554148294,-0.2352324632601608,-0.6826388327675994,-0.2849578992145148,-0.37453286825840354,0
20.95,6.8,4.75,5.675,7.8,12.525,25.2,11.675,1360.0,425.0,300.0,354.0,492.0,862.0,1618.0,683.0,19.0,15.0,18.0,16.0,22.0,19.0,18.0,19.0,-0.6444265641759672,-0.5996903725305168,-0.4037981957418932,-0.268565573562469,-0.20084614366203798,-0.22914943035636742,-0.04058018678149827,-0.2045576786884207,-0.6236825995864396,-0.4180094614075488,-0.5037537373497328,-0.4830525457525658,-0.6527993924799196,-0.5416565136839917,-0.5505162476258204,-0.2701246770443564,-0.6235286539661644,-0.5624015209796565,-0.3913274992927863,-0.2681471820599017,-0.5584607225615359,-0.2571082809637694,-0.18869188978953189,-0.22693919669068427,-0.5292318431397719,-0.26761498569036524,-0.3498859020187076,-0.07202788829205072,-0.4438393597278788,-0.3901146212176963,-0.19783093842159527,-0.11890967910320865,0
15.8,7.175,4.225,5.6,9.725,12.225,31.25,7.425,1115.0,454.0,255.0,314.0,651.0,691.0,1914.0,440.0,24.0,16.0,15.0,15.0,19.0,14.0,18.0,16.0,-0.5957673250055264,-0.178237260768188,-0.4819150186980218,-0.29500538723444153,-0.29249315164377954,-0.19413582675240731,-0.3412857203632367,-0.23188728665036776,-0.25741526931347053,-0.03351462300399339,-0.034494136130690724,-0.4759535045912138,-0.15513886928787587,-0.1629543882844021,-0.1616648654365713,-0.5396188245828378,-0.3797722793364824,-0.3447591576668544,-0.16734716122532614,-0.6075796289836536,-0.21640269579705865,-0.12528885694078867,-0.29536280705651413,-0.2388733810007597,-0.4179824228818851,-0.21092581843805608,-0.1280397410116202,-0.12395324513342544,-0.3075427497055076,-0.30766727472034333,-0.40020643222862196,-0.15838531748823348,0
17.85,8.775,4.925,6.15,9.6,12.525,32.125,9.925,1193.0,573.0,331.0,356.0,618.0,647.0,2044.0,612.0,14.0,19.0,18.0,14.0,16.0,13.0,15.0,13.0,-0.6236148503453819,-0.4083493651078998,-0.25014625209830876,-0.40704273315253664,-0.3577873499862611,-0.20712960099921646,-0.23421685537519418,-0.03960839013412355,-0.6308065968380555,-0.43103022585835915,-0.4179991873602443,-0.1391379982900587,-0.2859092922753105,-0.12033998294737852,-0.10501536135483726,-0.39559164430073473,-0.42797254489832287,-0.2750541020642986,-0.022526854068778704,-0.23465544998950114,0.021828680540086805,-0.21730704631598996,-0.1704274650508178,-0.4534796403957569,-0.4187526004230185,-0.257959238849257,-0.2992858164536575,-0.265411050568464,-0.4850100134575485,-0.1888056024266483,-0.28062910316940104,-0.22769481562087146,0
16.1,8.075,4.675,6.225,6.375,8.675,20.9,12.75,1083.0,498.0,289.0,363.0,419.0,509.0,1321.0,899.0,19.0,22.0,18.0,15.0,19.0,17.0,16.0,22.0,-0.7063356319749169,-0.502556190638082,-0.2311087456949275,-0.24638302299712259,-0.45413603843556843,-0.5303916721813121,-0.1217690779798551,-0.21491535505026335,-0.5325037410827889,-0.3869478506970087,-0.5487523729405245,-0.2979813317291443,-0.3719607419441773,-0.4905256318554797,-0.43979811761678556,-0.5081667561402643,-0.3030334853358274,-0.21503375927061455,-0.10968204504021217,0.10843228584646879,-0.01836981269959753,-0.3126525621957661,0.19256183596587828,-0.32076569114611964,-0.23557718020163634,-0.015268181615189688,0.05993688262278471,-0.21163170633635894,-0.5063405951557833,-0.06788660536169408,-0.22646849159987448,-0.1294045407465164,0
19.4,8.5,4.8,7.325,6.35,13.325,31.275,11.05,1284.0,561.0,322.0,475.0,418.0,883.0,2085.0,686.0,19.0,17.0,14.0,19.0,18.0,19.0,19.0,18.0,-0.4869079214279323,-0.28400049739736494,-0.21621190768241372,-0.2857978050707833,-0.631705315002146,-0.4384210431951274,-0.23206190093948476,-0.17216995664061002,-0.7991742532556332,-0.49942855865597763,-0.5062947597839409,-0.187409873879174,-0.50256209224765,-0.2839223309454929,-0.15251744420545085,-0.25014072429609274,-0.4748494046482102,-0.3442118949434653,-0.34457232235426766,-0.2338725375071472,-0.6187007928482391,-0.27059112473927477,-0.030640358266064153,-0.08998650927468044,-0.5948136326248176,-0.35386618649401735,-0.22829419734155082,-0.18061447854653637,-0.2900776403845958,-0.4031028628057143,-0.222641468272422,-0.43853404466280654,0
20.55,7.275,4.35,5.125,7.175,12.0,32.7,10.3,1461.0,456.0,284.0,291.0,476.0,756.0,1844.0,691.0,16.0,20.0,17.0,17.0,20.0,17.0,13.0,18.0,-0.629570059935016,-0.4277336865800773,-0.26558438163236425,-0.18773997591000396,-0.42496017997627056,-0.3351651245859625,-0.24781532786140373,-0.1012450181196312,-0.6497206185819608,-0.39144641836103006,-0.29051785651225204,-0.1538557605169968,-0.27779735144319834,-0.06230820234385699,-0.34304087096045166,-0.2859476664916295,-0.6984080145461664,-0.4804178254505128,0.04066382350881907,-0.03153655448671616,-0.36019838905529394,-0.20760993204392392,0.10317231377559231,0.05099076167010623,-0.327894168545045,-0.48673372608804427,-0.16554618950217204,-0.39104314503024273,-0.3313999808413643,-0.23347801710750957,-0.1706983549735521,-0.46389020538677883,0
18.85,8.85,4.375,5.9,7.375,14.225,33.025,9.975,1303.0,583.0,278.0,385.0,499.0,814.0,1876.0,616.0,17.0,19.0,16.0,18.0,20.0,16.0,17.0,19.0,-0.8861941935788855,-0.7789843631868022,-0.624045567725344,-0.17229608986772812,-0.5718833032077538,-0.2702986573308714,-0.614124107095665,-0.4690748434300747,-0.4262467872585106,-0.4596769718914685,-0.31411953975638773,-0.33067455509552623,-0.6453746377382419,-0.27611496947175496,-0.20814790373169376,-0.30959886328165603,-0.7034662379631844,-0.5313333820585778,-0.3411417251028298,-0.3860576936170143,-0.14127766917772483,-0.4318876485597702,0.05171478200529292,-0.3481684656547919,-0.35616178719743713,-0.418830225229713,-0.45791486253856567,-0.4832885504282427,-0.6351323355705438,-0.5346839605324254,-0.40962722768580434,-0.3535433251190791,0
13.05,7.2,4.25,5.275,7.8,11.475,30.625,11.725,842.0,416.0,258.0,276.0,544.0,707.0,2004.0,725.0,15.0,13.0,12.0,13.0,21.0,17.0,20.0,17.0,-0.5293750556679817,-0.3781512541229096,-0.48725522350812434,-0.2593064762145842,-0.32820483397428335,-0.09307428299288607,-0.35402311545767673,-0.3623167813292777,-0.4428561642023879,-0.22189507397743252,-0.3147000293379499,-0.2866746718056538,-0.3209585508377097,-0.31884125605780633,-0.39782271463593094,-0.39912415845702814,-0.796952747231853,-0.5338408818321189,-0.35604200199113173,-0.20793766256049073,0.02251767175784786,-0.6421281436039249,0.14239754368270324,-0.5344294180673481,-0.514948687593755,-0.38244159369141356,-0.4840656512299259,-0.3975733587736057,-0.5719725511776206,-0.5571709625521014,-0.7110372568862395,-0.42122710355977216,0
21.075,7.875,3.975,5.475,8.425,11.425,33.775,13.225,1463.0,553.0,254.0,333.0,533.0,694.0,2222.0,839.0,21.0,21.0,17.0,17.0,19.0,19.0,20.0,20.0,-0.7443215043443137,-0.46459636704953033,-0.32054074172174424,-0.339566495250584,-0.6690317330800942,-0.16679126477881784,-0.3366106648371609,-0.13489530234326136,-0.4874865600795611,-0.3914739169306904,-0.4204688301427981,-0.268350935056894,-0.27883431082067456,-0.4244558933661072,-0.1995981247464129,-0.47194378942156323,-0.5152131996370032,-0.4303422444651221,-0.24480660272458032,-0.30413613254974453,-0.22602747255185102,-0.2545472105159817,-0.07625576573984336,-0.22480604770770485,-0.5927933566401666,-0.4222648186814558,-0.5186205028198428,-0.4679196336486619,-0.30488955632598824,-0.15152659718579176,-0.44285046376588344,-0.1354999337446886,0
22.75,7.9,4.3,6.15,7.525,13.025,25.775,8.45,1456.0,524.0,275.0,397.0,552.0,781.0,1570.0,601.0,19.0,14.0,16.0,16.0,24.0,16.0,14.0,19.0,-0.9181424247278379,-1.0622134698138244,-0.4414556605231226,-0.3717422224637354,-0.552760436050181,-0.1793226523553049,-0.23770247120084345,-0.05151881789740294,-0.6178555281237605,-0.28780596748569504,-0.31178791863712,-0.27146232885670313,-0.4651219771826315,-0.4221348463403274,-0.45336645338742676,-0.23961322703648905,-0.8730274289056134,-0.6344741052928135,-0.3134721683297623,-0.3096990147746755,-0.4516028472904367,-0.5120160931029408,-0.22647998290586355,-0.33475264527727094,-0.6187229819489202,-0.6736231377464725,-0.49424257013238215,-0.41095074724961395,-0.7638617512221707,-0.5974110496525176,-0.5070900628652055,-0.3045796920294683,0
19.4,10.075,4.125,6.1,9.325,12.775,29.8,7.9,1362.0,638.0,273.0,407.0,618.0,755.0,1709.0,493.0,20.0,16.0,17.0,15.0,19.0,17.0,15.0,15.0,-0.901884457192183,-0.5642975140440606,-0.4173327024320543,-0.3640492889258101,-0.5836941849493751,-0.4805879486171851,-0.004698345002060589,-0.11459578809307516,-0.5408063642134935,-0.3470288505140253,-0.21740472356090482,-0.28219518679232225,-0.43117830634326443,-0.18511462392928388,-0.235765931250193,-0.1164887172334595,-0.6041961442389735,-0.4967562719967398,-0.2731672112205456,-0.2046004055213181,-0.17078117481676924,-0.2872583060892479,0.01783921493053552,-0.3555781925217583,-0.3093667810818166,-0.3739423835856427,-0.23840925578090674,-0.28776145517995194,-0.32557813660687557,-0.2083205173090649,-0.1323237808319107,-0.28303240409208263,0
18.425,9.05,3.5,6.15,8.725,13.075,35.025,11.725,1305.0,556.0,252.0,387.0,536.0,786.0,1747.0,654.0,20.0,16.0,21.0,17.0,16.0,20.0,14.0,16.0,-1.006325913122871,-0.7443118973652465,-0.4750049546014719,-0.2672942058909876,-0.4219000976990987,-0.45132279375036055,-0.4512243273992082,-0.4032152259975467,-0.523347552304007,-0.29508461485333914,-0.27938323439980867,-0.315940811216623,-0.35762272474576556,-0.24541400079886924,-0.27144088253203313,-0.1600330616409016,-0.40074498686801324,-0.2577735024925319,-0.2977387496259155,-0.24861741754425923,-0.273340284013091,-0.05339848175820938,-0.10671254327948992,-0.610100026170606,-0.06389890304946164,-0.5472339719668547,-0.10915046995312368,-0.3886746069271867,-0.24995586844055853,-0.2469534203139126,-0.35244894205191524,-0.24395418418653195,0
20.025,9.325,5.25,6.7,7.05,10.875,30.15,12.55,1389.0,614.0,383.0,450.0,498.0,760.0,1915.0,863.0,24.0,19.0,19.0,21.0,20.0,23.0,23.0,23.0,-0.8789436347449762,-0.8703280275335084,-0.4163668153887716,-0.41182041041431783,-0.4051267600694461,-0.3375459543464258,-0.1202488759447906,-0.3197817210525763,-0.39993025429863427,-0.3515713988595274,0.030868824873926077,-0.26156271866872355,-0.5450316023875326,-0.6767084607154616,-0.17406662541288906,-0.2566779224596807,-0.690017685652475,-0.5154945563268061,-0.38605965416662213,-0.28040343272781204,-0.5727283079968067,-0.2010920077101509,-0.4522584460555586,-0.18349287561653146,-0.46490990040645686,-0.42600399073766865,-0.2600084422956327,-0.31510920106350987,-0.4704972431717809,-0.06591347513623982,-0.15055549507646854,-0.1641847120639958,0
22.25,8.075,3.725,5.85,7.0,11.775,19.975,13.2,1575.0,548.0,222.0,409.0,431.0,788.0,1176.0,887.0,21.0,21.0,18.0,19.0,17.0,19.0,17.0,21.0,-0.7918103919398667,-0.48181607533880483,-0.42885194570207774,-0.2677294160656945,-0.5002296856128087,-0.20589328433181706,-0.19602688451257153,-0.3871540202981521,-0.04540408595030468,-0.19832127864279475,0.14996876627912936,-0.2873677167308566,-0.5315380952178478,-0.43918434902672504,-0.33093419193334006,-0.5085489145211349,-0.5901995500417,-0.5604048630573253,-0.5971324648103671,-0.2790611613247189,-0.3959260079929864,-0.3145392421296611,-0.04134967458081436,-0.31885421115513957,-0.18191690086254056,-0.31545656886722434,-0.17660045636690366,-0.23008337287535433,-0.45635436245387173,-0.2446951548980742,-0.20489743820328388,-0.2828286584585212,0
24.2,8.7,3.775,6.05,5.9,10.925,27.55,15.35,1547.0,584.0,243.0,396.0,381.0,669.0,1936.0,1052.0,15.0,19.0,17.0,16.0,15.0,18.0,24.0,23.0,-0.6312957443903092,-0.6541322523216857,-0.405779427526931,-0.3101030962451124,-0.5327370851164096,-0.2792617315615561,-0.36366744102674603,-0.26158686637176387,-0.9580038052217215,-0.6659230200817661,-0.7723930312824093,-0.5293619255594505,-0.29360422329890673,-0.21610601749515976,-0.396246100663019,-0.08069271070312528,-0.4476929392570709,-0.28526833413166164,-0.18754979010276351,-0.290968275984348,-0.05242641786024416,-0.08292790822526622,0.06941168686952266,-0.5080180613247709,-0.7522890573372459,-0.43422319993674446,-0.21660331719780468,-0.23910723821482774,-0.5850702143446916,-0.23934053246681347,-0.10814126581735861,-0.2644296951358598,0
20.525,7.2,4.475,6.025,7.925,11.675,22.6,15.2,1339.0,491.0,294.0,387.0,529.0,698.0,1483.0,885.0,17.0,18.0,17.0,16.0,20.0,17.0,17.0,16.0,-0.42619847090387547,-0.5492340299692164,-0.3006824253636372,-0.17161472400514513,-0.6561973081804422,-0.35080285897003766,-0.42343035200319656,-0.30351691056416086,-0.7714669466530371,-0.4151000274729499,-0.4336443824381268,-0.31855004165665085,-0.6190258439700859,-0.4292666931485709,-0.42542203654890604,-0.28127210242174217,-0.5524439721080158,-0.3263401022632662,-0.19415301393064086,-0.3424615120052697,-0.3316696518162576,-0.48766110245900235,-0.1334864686125257,-0.31489843502760695,-0.26363984339398316,-0.37633727534811123,0.27742048150833964,-0.08448483822084304,-0.36605274321150305,-0.4365974900142428,-0.29319775342835885,-0.2835650427208543,0
19.25,7.0,3.7,5.95,9.575,11.575,24.075,10.1,1337.0,478.0,230.0,395.0,641.0,702.0,1481.0,613.0,20.0,23.0,12.0,18.0,21.0,15.0,20.0,13.0,-0.7906605896156541,-0.7950374268767716,-0.31081167135473176,-0.4334862089869591,-0.7181321287046917,-0.31200400878896006,0.07644262673501118,-0.05295138299711095,-0.5368326846644494,-0.5140199776060399,-0.4022884319345245,-0.08929392813681603,-0.6696699348671242,-0.5056411788714641,-0.4097886954466777,-0.16649713853673243,-0.8412700821874373,-0.6054072564766162,-0.3317264672773489,-0.2348343743429632,-0.5128680573674055,-0.5949350179916849,-0.5029195583462805,-0.20981508304335106,-0.5571002137584261,-0.4423857302433993,-0.6013929771502416,-0.35441012823905377,-0.502457275536279,-0.3087201883464192,-0.5422902929310252,-0.39324299667875634,0
20.825,6.225,4.175,6.1,8.8,11.45,32.4,12.75,1324.0,364.0,231.0,400.0,605.0,668.0,1787.0,832.0,17.0,13.0,15.0,18.0,18.0,14.0,13.0,19.0,-0.3134081899008362,-0.35120069416786076,-0.17901073972591358,-0.28791537642183895,-0.3951745153140829,-0.33820663640457865,-0.3655251552233607,-0.27771396668750414,-0.17301285926322688,-0.4375926057554072,-0.3043428917512739,-0.20888171370465022,-0.4685543211442593,-0.1944138769734001,-0.22275675692304633,-0.35031590799117635,-0.8211955453188602,-0.3593714677009083,-0.23363057089633193,-0.1710989876990234,-0.18786493906039625,-0.0033540569300140734,-0.3534875063494584,-0.21547188823976623,-0.19120350564469452,-0.2559860578494476,-0.07579234404401503,-0.18495304491836384,-0.3168766413620376,-0.22084386760549427,-0.2686259739345037,-0.23106597935050752,0
21.225,6.725,3.1,5.1,7.775,9.875,24.05,12.45,1376.0,377.0,201.0,326.0,526.0,582.0,1487.0,811.0,19.0,15.0,16.0,17.0,19.0,16.0,18.0,21.0,-0.4448496105345945,-0.4776409919714831,-0.30792292826788076,-0.4348742312326591,-0.14271968136815646,-0.39625431149701135,-0.2351465752039341,-0.33200539826865133,-0.46127872908751005,-0.3061796484163328,-0.40595937332370974,-0.2298405962400248,-0.24613834886900782,0.024327042036153716,-0.1377458279798023,-0.08825896601123766,-0.6695451449978121,-0.12993834607863095,-0.19119328671643768,-0.3115350555086047,-0.2981392985580674,-0.2445383479480664,-0.4259681474215704,-0.1430730154557211,-0.35234175695587816,-0.2126868584119904,-0.18277782324493053,-0.3572758314702116,-0.5183994724039649,-0.4157898607779956,-0.2903527438709558,-0.29454118191779977,0
18.575,7.85,4.825,5.3,8.35,10.975,27.875,11.3,1214.0,445.0,306.0,294.0,547.0,602.0,1826.0,731.0,18.0,15.0,20.0,13.0,16.0,18.0,18.0,16.0,-0.9351919732762302,-0.8677501587255683,-0.795663101479693,-0.44686908308073076,-0.4879866593818431,-0.33773831881474736,-0.5498688994042678,-0.31308048035692215,-0.495228173091522,-0.3322356494255438,-0.5078568875871228,-0.36825884390446606,0.07638915450321627,-0.23004030869453973,-0.19104715036538936,-0.34046179663385334,-0.5175482573259105,-0.008389377487531652,-0.38561184587393815,-0.41316315628749284,-0.16343739497249032,0.03117589984094307,-0.35698686453685485,-0.47703259562782846,-0.4178930621626552,-0.3221210566704361,-0.24737517666439898,-0.4147433271398727,-0.4972764169324069,-0.4470720225213857,-0.20376761008571134,-0.4416451613404889,0
17.975,9.125,4.475,7.3,9.175,13.1,33.65,8.55,1188.0,559.0,286.0,451.0,555.0,746.0,1873.0,493.0,17.0,18.0,16.0,19.0,18.0,13.0,15.0,13.0,-0.6614847635118241,-0.5245303945014789,-0.4432767482473484,-0.436865858587311,-0.45174012613945946,-0.3701293562713216,-0.293637841109348,-0.1611877950879383,-0.3109562520849778,-0.06441946719943638,-0.3914896929344378,-0.34805010979780676,-0.11641880771064912,-0.20677780617039743,-0.015392688792142091,-0.38578641043467055,-0.36149535667353583,-0.12648526225809462,-0.21982489408635775,-0.42232957208735195,-0.14697089148466172,-0.10682644221411541,-0.08332582626006983,-0.268093874546315,-0.1226064822984704,-0.21152806543586075,-0.2122945211415684,-0.06404919472464772,-0.10187195683148538,-0.2647118164891966,-0.15742489987794533,-0.15466305982413273,0
21.2,8.075,3.7,7.475,8.25,12.55,30.15,12.55,1427.0,549.0,233.0,467.0,563.0,785.0,1814.0,838.0,20.0,19.0,16.0,17.0,17.0,13.0,16.0,20.0,-0.6378975047848353,-0.4695773164793605,-0.4623407924796146,-0.27581490112141477,-0.5361168084998634,-0.2591030738504182,-0.22536272333535287,-0.0654463305355527,-0.22243391794719192,-0.20643360993852664,0.028253487688988388,-0.3072102505616965,-0.28495253854202957,-0.1666496493275228,0.1315146410793239,-0.22364011341616719,-0.5484157419309239,-0.25915187394221,-0.3318760450665729,-0.2416900738934566,-0.18856204051228254,-0.13804390760613577,-0.266653799173744,-0.3027993948042209,-0.21745113638142885,-0.19005463312579962,-0.327632363918232,-0.10772992738237314,-0.4176357523019745,-0.040190280591159894,-0.3244903090430743,-0.3369372559766352,0
25.15,5.875,2.925,4.875,6.55,10.525,28.95,14.075,1636.0,385.0,165.0,320.0,401.0,567.0,1739.0,886.0,19.0,20.0,14.0,19.0,16.0,14.0,15.0,21.0,-0.6891257715066663,-0.627654454440281,-0.4848334016430995,-0.3681057137119429,-0.3644000238321805,-0.09183575799972346,-0.20064082180139547,-0.1560559731058897,-0.26789068281659445,-0.3098435320257291,-0.14557732505307383,-0.4115967610366678,-0.4650090273082463,-0.18879646326002947,-0.014827877099283989,-0.21386163943025494,-0.36026023375506705,-0.27329025931693735,-0.41915258767907565,-0.2081025735856374,-0.15666118132855464,-0.1388864767133178,-0.2295028238529536,-0.261001160572586,-0.3471270409711767,-0.4018154769466945,-0.37514825361750237,-0.2937867674298304,-0.5095100325837596,-0.4958260283210265,-0.38546056779830384,-0.6151054648564933,0
21.075,7.3,4.125,7.1,7.3,10.2,30.425,11.475,1498.0,452.0,244.0,408.0,486.0,598.0,2011.0,763.0,19.0,14.0,13.0,13.0,15.0,15.0,17.0,17.0,-0.6778494372719541,-0.39378454204143426,-0.49754384324083334,-0.5605922917185079,-0.4123454928555612,-0.5270865411042458,-0.35577831359180034,-0.36221011045215795,-0.40841663281735935,-0.23667826484168816,-0.2673828222452175,-0.2568260176069805,-0.3560237118650253,-0.4492041577651882,-0.3298364010996222,-0.34151180855475394,-0.3239492065462615,-0.18802440429999703,-0.16113279865029737,-0.10062417298054949,-0.37784955220607896,-0.461140842617602,-0.2803653006839413,-0.16489097682542428,-0.44489524688412657,-0.32830951367869515,-0.25697606906002585,-0.12168640136853431,-0.41717792302471507,-0.09051354883717241,-0.22134722415535638,-0.18455377855534202,0
24.725,6.125,4.15,7.65,8.925,11.725,44.45,19.575,1548.0,369.0,262.0,505.0,665.0,778.0,2926.0,1260.0,17.0,13.0,17.0,18.0,24.0,20.0,17.0,19.0,-0.5196305749387736,-0.5673433588951221,-0.42943563005119756,-0.33924241097850033,-0.4057971576916687,-0.3627015604961256,0.08279760128454441,-0.014629647168132252,-0.38729877878605107,-0.068839613902889,-0.07310796266215258,-0.052252011066936326,-0.691227358852446,-0.5779062537129958,-0.43295676417166556,-0.07261259312065664,-0.8583307331138202,-0.6048263167996061,-0.46961172609636304,-0.2787122457775004,-0.38275078845139415,-0.09282355202013183,-0.3022030468151462,-0.4992062763076994,-0.784164932540069,-0.5168764164122936,-0.6943351814332154,-0.567357585790721,-0.5409229067921516,-0.32540309564964837,-0.22804213246904148,-0.23409707438680097,0
25.8,5.325,4.2,6.95,7.85,13.8,45.8,18.4,1814.0,321.0,254.0,478.0,545.0,870.0,2981.0,1173.0,21.0,12.0,15.0,17.0,22.0,15.0,18.0,19.0,-0.7776256280119652,-0.6137910110577177,-0.4979033494244124,-0.278604826995063,-0.49286601012547643,-0.1581430272546998,-0.661940832721718,-0.344010284165467,-0.3169694460909861,-0.07748729355988723,-0.16662021628997714,-0.09343341624871677,-0.8630594589343651,-0.6842847310294148,-0.4528029540952535,-0.25741393773933235,-0.6232952058847067,-0.13805186367236894,-0.40808714951346226,-0.546746604956307,-0.2771580956698422,-0.28617550807764147,-0.18116270125060416,-0.2577025259402105,-0.4397917905455038,-0.3154528416295267,-0.19643435288318561,-0.11611007392805572,-0.47745584235264493,-0.4626380037582316,-0.30728258853361623,-0.24698512159043265,0
24.15,8.0,3.875,5.25,7.175,14.725,38.15,12.475,1686.0,461.0,220.0,329.0,515.0,859.0,2486.0,762.0,20.0,15.0,16.0,18.0,19.0,14.0,21.0,18.0,-0.7035646590731347,-0.4224597917226654,-0.2712554626457306,-0.22864820064607974,-0.34521035850263954,-0.25590056021547236,-0.37154769821006556,-0.1891156811418623,-0.2796949159020571,-0.20005715321846568,-0.09337473202877876,-0.06702667338140378,-0.3776282120575697,-0.052566818072868615,0.09943901110448504,-0.1511891393996622,-0.6880406870586439,-0.4505675586465222,-0.5342476998743689,-0.44719395734224093,-0.39278407344229305,-0.43489523665732244,-0.3353888085725041,-0.2948527568232158,-0.4783122055876262,-0.2834097717173562,-0.40316450619205574,-0.31659028745632434,-0.21170127153129628,0.09638880806640998,0.03223219758635024,-0.020360345781813168,0
21.1,7.55,5.475,4.625,7.75,13.375,39.35,14.825,1333.0,428.0,375.0,315.0,521.0,848.0,2455.0,883.0,17.0,12.0,19.0,14.0,16.0,23.0,16.0,16.0,-0.6716758371265045,-0.38525900933795865,-0.30912426089243084,-0.1353632733675509,-0.3242867428131305,-0.3348764225995144,-0.255701805783158,-0.10476222227742037,-0.6847393537566333,-0.371664338040128,-0.20150707941928275,-0.22271931727016173,-0.6307156777493718,-0.45840213840445915,-0.19391014568733705,-0.08650117627045908,-0.5211545212654264,-0.3282921115859315,-0.07810310359495556,-0.21605366939085738,-0.3173662062779761,-0.11716997914744871,-0.2102153643667899,0.04188254703510823,-0.6232452561187487,-0.5230657518584887,-0.5279568198201254,-0.40299693661621117,-0.5634062035183459,-0.43566482493643993,-0.4985298642927295,-0.4470998706871286,0
17.275,7.125,5.475,6.025,7.4,10.025,31.35,11.5,1111.0,426.0,339.0,399.0,451.0,649.0,2107.0,693.0,18.0,17.0,16.0,16.0,16.0,16.0,17.0,17.0,-0.5027272305245027,-0.4219758748298699,-0.2923245223125398,-0.30295523302398614,-0.38427938461007627,-0.3787254683530619,-0.27746267168665656,-0.2342342732976203,-0.7139365932404594,-0.4175741782159752,-0.5799892990257105,-0.39342969537044303,-0.6149780638382434,-0.5161481468252608,-0.2952343321050108,-0.14506401388565549,-0.4999233002717793,-0.3632299877647109,-0.34555187926429,-0.3325347998973348,-0.3073286167608001,-0.1313883556215465,-0.3199825033983322,-0.34529720908340705,-0.44172082423637243,-0.041870864739391896,-0.14419961258159336,-0.42220725152246197,-0.3373661813866998,-0.06548666654392715,-0.08292699385468652,-0.10589666132140198,0
20.1,7.3,4.425,6.725,7.7,9.3,27.95,9.075,1402.0,439.0,286.0,443.0,483.0,583.0,1588.0,613.0,21.0,15.0,20.0,20.0,22.0,18.0,10.0,20.0,-0.7889138838000489,-0.7538610694218995,-0.6191179585327771,-0.5542861017906908,-0.43676535752867296,-0.3859794785442912,-0.23564426011257047,-0.2805228887283789,-0.45173060136261073,0.11919095802478118,-0.27242359795437904,-0.25168321685720013,-0.8347312900082484,-0.9251606729632457,-0.6143818363427058,-0.23064950949653867,-0.34783892919857085,-0.23845819553316366,-0.2139717457893869,-0.224761175622284,-0.34128809839798424,-0.2664440455023937,-0.3108064273859484,-0.07894614275294454,-0.34259671600436087,-0.39796603994355273,-0.25009792979018935,-0.379860513883253,-0.5705541969882398,-0.2520066571620114,-0.21616960490100479,-0.03671049651130617,0
20.6,7.175,4.0,4.475,8.7,10.625,24.65,9.675,1427.0,473.0,242.0,274.0,607.0,526.0,1440.0,597.0,22.0,16.0,18.0,13.0,22.0,14.0,17.0,17.0,-0.5499224593327048,-0.29991611968198784,-0.1559402081529619,-0.3630884269634155,-0.36499701820688063,-0.2398438261398112,-0.19117875491694863,-0.23997677197725018,-0.3464569278473302,-0.2619372951000953,-0.30413172662184024,0.08369171481066473,-0.16052380661658988,-0.18448732081550462,-0.30306752729125214,-0.2709704917404876,-0.548005737042643,-0.27454020947136326,-0.06298834082012526,-0.17856566761493636,0.05122896453912951,-0.183113221203053,-0.22732278890931243,-0.33628815970253234,-0.3857475282342292,-0.14721634486912988,-0.2925153675693186,-0.4137024112689524,-0.3509754528923667,-0.06570947629929025,-0.3227676785269263,-0.35459613896820996,0
19.325,6.8,4.0,5.65,9.575,12.6,39.125,15.825,1219.0,448.0,272.0,342.0,618.0,643.0,2751.0,966.0,20.0,16.0,20.0,17.0,18.0,16.0,19.0,13.0,-0.3676111992239635,-0.1462329618520197,-0.14606009941486364,-0.3827237155999776,-0.4958114491589392,-0.3160816919005826,-0.4871522199382584,-0.5293909640022292,-0.5573786183581182,-0.2973566389608145,-0.25215349220507866,-0.2577845516243359,-0.41981813284648206,-0.23793478439487376,-0.09277769841130995,-0.22930259102419775,-0.5540114477754169,-0.3267378280822862,-0.10909731099360967,-0.24948865981285373,-0.02156655500795661,-0.4775041860029046,-0.20936877000302667,-0.4154898310969832,-0.6127427938178257,-0.3923984456699637,-0.47020230158707943,-0.37981211478843174,-0.4446940250832173,-0.3425179976264131,-0.34978831250750747,-0.401897645684561,0
12.95,2.55,2.8,4.375,13.35,9.0,49.15,20.55,845.0,153.0,185.0,300.0,892.0,515.0,3333.0,1526.0,18.0,13.0,18.0,18.0,21.0,14.0,19.0,21.0,-0.5478424980072217,-0.20422292689873672,-0.225196105114792,-0.14065650999535623,-0.29497334721001933,-0.07594155700064809,-0.22597829847896997,-0.10085883511649867,-0.5580694284072971,-0.2735599136785186,0.06647020835506537,0.09816007242327467,-0.6681244765209486,-0.45348508321832687,-0.28699723367848334,-0.026493503464822807,-0.8504240347152459,-0.5985048912029608,-0.48107789518805477,-0.4309730959382023,-0.3664721232603706,-0.42048440585770896,-0.5194477610691752,-0.22244100306526962,-0.6388018675615021,-0.5153628044262487,-0.3755004716160672,-0.4354915549671163,-0.7654142998109186,-0.2879192528822315,-0.1758301669451448,-0.22731112258686523,0
19.05,2.575,3.275,6.475,12.25,11.175,61.075,19.225,1308.0,155.0,203.0,353.0,826.0,617.0,3566.0,1197.0,18.0,16.0,15.0,13.0,21.0,14.0,16.0,14.0,-0.6010654146668408,-0.42908110821612805,-0.25607875408635333,-0.3108372329416617,-0.40736388578563065,-0.4145499674327499,-0.42922675624889683,-0.33674363110743044,-0.36849178165850305,-0.38178569406369567,-0.23835153662560282,-0.16346193679491977,-0.34753829093098604,-0.4549254008536439,-0.2530977091816197,-0.23533361039025724,-0.7228830453099266,-0.8582710496870786,-0.43982826077422277,-0.5494881200761715,-0.42027082358623563,-0.38390256871129885,-0.5787701753690448,-0.43460656262269953,-0.5585315352970338,-0.4805362645645783,-0.5614988552714568,-0.4281267249253834,-0.6688348542207977,-0.5603287184720195,-0.6231106488258902,-0.492037137344875,0
