0,1,2,3,4,5,6,7,8,9,10,11,12,13,14,15,16,17,18,19,20,21,22,23,24,25,26,27,28,29,30,31,32,33,34,35,36,37,38,39,40,41,42,43,44,45,46,47,48,49,50,51,52,53,54,55,Gesture
10.5,3.45,2.55,2.975,21.35,22.075,1.8,5.9,700.0,188.0,135.0,174.0,1366.0,1146.0,96.0,349.0,16.0,14.0,12.0,15.0,15.0,11.0,12.0,17.0,-0.4189917289869908,-0.3458089233648219,-0.30578705904823694,-0.38994105451509853,-0.3347848676456901,-0.28412621133944743,-0.4930504975581345,-0.45543313189820034,-0.3023177197455307,-0.44103696797383724,-0.2610948615024962,-0.3573738105985635,-0.26139882349982146,-0.39902353502584126,-0.2561269225759297,-0.30329389044097205,-0.4478902286153701,-0.16393374922102186,-0.5225424551786274,-0.20383208953089316,-0.2721831319806259,-0.35380659536976083,-0.392723050714463,-0.4002114466525009,-0.08698501841710528,0.005624569043283203,-0.28960388486124333,-0.36968318294918956,-0.30639854880783707,-0.28188118751896807,-0.10289668078304935,-0.15727367110890927,1
7.8,2.95,3.825,5.125,18.925,25.675,2.25,5.075,502.0,161.0,222.0,314.0,1249.0,1607.0,147.0,301.0,19.0,11.0,13.0,17.0,21.0,17.0,16.0,17.0,-0.2019854701351217,-0.30485151298393104,0.009612629389339102,-0.3826272485169588,-0.19996900701088016,-0.28933627089715686,-0.12639880544937288,-0.5777153214445268,-0.2959082261340521,-0.5939397845375988,-0.1150779418677929,-0.4832720369881797,-0.20266169075905996,-0.2451186773185389,-0.08434220881947295,-0.1515779055214867,-0.4722542785686209,-0.279061326708376,-0.1289676223584741,-0.22640878430056366,-0.4014678660521474,-0.5463986204283405,-0.14175428132850904,-0.5223731874118471,-0.44177537305101644,-0.009501038817859644,-0.06042626095091002,-0.18879247900953972,-0.23416173960824357,-0.11405151152282181,0.04407974765725958,-0.19646612907894875,1
9.275,2.8,3.15,6.35,19.275,17.625,1.975,3.825,639.0,160.0,196.0,407.0,1143.0,1088.0,129.0,226.0,18.0,13.0,15.0,16.0,19.0,20.0,16.0,15.0,-0.4817502725875827,-0.2686566751393107,-0.1195008460726606,-0.3204083024186048,-0.010105520812956827,-0.33985048353561265,-0.1075276207130806,-0.2744621416195981,-0.24340117956415094,-0.3751056141085206,0.045505243710028,-0.18696677214573887,-0.29259954352774803,-0.2576137761802898,-0.1284258244166744,-0.24815583000164454,-0.26895855737300867,-0.35895702027928533,-0.09625861364907475,-0.2458205644574291,-0.15571374689576498,-0.44690325118932656,-0.053423777381288,-0.28271624361637177,-0.2635507092892957,0.16736451188176515,-0.04581940458455526,-0.4839898894752821,-0.4374925570552794,-0.28859143299857565,-0.4155002439839174,-0.3146544456885732,1
10.325,2.775,2.925,4.025,19.225,17.275,1.7,3.325,677.0,178.0,176.0,251.0,1301.0,1049.0,94.0,214.0,19.0,17.0,17.0,14.0,20.0,15.0,10.0,19.0,-0.5202398777443246,-0.4807502657620011,-0.4132526958479379,-0.38259480541008334,-0.585388736611196,-0.523222375466496,-0.15796438264893026,-0.1395660884549552,-0.32380583301656746,-0.20954550844770345,-0.10929203150738799,-0.20625998617536134,-0.32131232906187046,-0.352294033041127,-0.17154662031454448,-0.23278085971344603,-0.5751402473093261,-0.22735518789080245,-0.22797043065055228,-0.2618697160727952,-0.39733348512500516,-0.4434517346932123,-0.3423112376133827,-0.2183055557558086,-0.09833899543037787,-0.031683475471993336,-0.10590841247529303,-0.2832882123196328,-0.4674699075986382,-0.5622992650562368,-0.24577218228063602,-0.330227507444128,1
8.55,2.125,2.55,4.925,17.35,13.575,1.825,3.175,553.0,132.0,150.0,312.0,1116.0,734.0,93.0,173.0,17.0,17.0,16.0,16.0,21.0,15.0,13.0,16.0,-0.45231467011534865,-0.39576243972754754,-0.3058135363621437,-0.3619957021927326,-0.526054641232259,-0.5623333447727292,-0.32617237962263873,-0.3396578024582158,-0.2698562506569112,-0.29453901458449244,-0.22383555985911724,-0.005738771860449792,-0.47085088684317983,-0.11437020154006576,-0.12695833136721868,-0.09248407530640368,-0.5850594166537791,-0.21016392078364102,-0.13694734883124582,-0.131764695991349,-0.31090056286748596,-0.30214110813798867,-0.38953678259652486,-0.37149877807763054,0.11957187372653592,-0.10089348270416792,-0.5613426550329356,0.08550083171409265,-0.07137305137128475,-0.4062430861993822,-0.1885471985626166,-0.4002535555358332,1
6.5,2.775,2.275,4.25,13.9,14.8,1.8,3.0,408.0,178.0,141.0,260.0,910.0,891.0,105.0,169.0,17.0,19.0,12.0,15.0,18.0,12.0,15.0,12.0,-0.5059184135169539,-0.5146707212568387,-0.3330086827144256,-0.22226701090145862,-0.551737593939652,-0.24219526623672472,-0.3206418153667632,-0.26957721663912904,-0.33795672946283156,-0.3077235503631234,-0.3521623315517901,-0.3159902278044713,-0.29507621900295616,-0.20074302562274834,-0.43408851332226117,-0.32098568285679246,-0.550582633641979,-0.37747729363345445,-0.5892379284939371,-0.5651094698665275,-0.5599347245310439,-0.3088727147179562,-0.7017044217606148,-0.6859017825555109,-0.22350901047777247,-0.016002193314673712,-0.2129877102572411,-0.32770390470139144,-0.24232187435913577,-0.12950543279511162,-0.24249449444542262,-0.1828893640082854,1
7.15,2.65,2.6,4.275,14.675,13.3,1.45,2.975,477.0,155.0,165.0,294.0,934.0,694.0,82.0,175.0,18.0,16.0,12.0,17.0,16.0,14.0,8.0,12.0,-0.4185422791163768,-0.3553828815548761,-0.3235610445202157,-0.2804964016178553,-0.4075182019603629,-0.6071261568938284,-0.3395092896291189,-0.6114213821754917,-0.39225444450328906,-0.45641440912382214,-0.4236241000560357,-0.4109751052034229,-0.3622788327464097,-0.18787759104591628,-0.4882898193925199,-0.18660290546144737,-0.482123998129806,-0.30612804356325735,-0.2575480132284424,-0.26012047000597477,-0.14277536694134704,-0.12992800383472544,-0.2190936559869704,-0.14095621914470294,-0.2485781086072896,-0.1540004867043463,-0.22930443296433908,-0.062178726913523594,-0.09478452413045121,-0.18668184926344214,-0.07771108059515734,-0.32235580205401554,1
8.3,4.0,3.15,3.875,16.3,13.75,2.25,6.275,511.0,248.0,173.0,228.0,1025.0,853.0,135.0,362.0,18.0,17.0,16.0,12.0,18.0,20.0,13.0,15.0,-0.45914998591801615,-0.5698160330505616,-0.29940573648818747,-0.4299001021903356,-0.4563804985800649,-0.4454288459689432,-0.30298071748957117,-0.31608757709092156,-0.022665753849058026,-0.3142196617482748,-0.12955637359505426,-0.47109476805226563,-0.3014523458875338,-0.33774552217120213,-0.35527272216574535,-0.30696847506306024,-0.30345042899930963,-0.2028856456513445,-0.31376850858915406,-0.23643527289926755,-0.3194995815123864,-0.3171987803241573,-0.3912358274237537,-0.3058855342179407,-0.13465069976229962,-0.031466334038183524,-0.03861823878338745,-0.29345317121493203,-0.14119632730855555,-0.3234554588139101,-0.2000111656289802,-0.1569092566609795,1
10.05,3.75,2.475,4.5,14.025,14.25,1.825,5.3,669.0,227.0,117.0,222.0,873.0,830.0,102.0,368.0,18.0,16.0,10.0,10.0,13.0,11.0,10.0,21.0,-0.6118300245465187,-0.4060170020226547,-0.28265620477899334,-0.1811918687481669,-0.41263355004645713,-0.3161938315897002,-0.12581463327477063,0.046621918107912795,-0.21864242153531033,-0.4365367546604074,-0.3584130884213763,-0.31381134862757104,-0.1150316785996314,-0.16139155762098842,-0.44326866510710916,-0.1397923842453867,-0.2044420432892469,-0.26869102681615736,-0.26071023728815534,-0.1260753484852537,-0.021370426656112974,-0.44285962384257505,-0.08938245248731846,-0.3127561882751562,-0.4333617601583762,-0.22347542121148156,-0.3464522930766336,-0.13247002421953855,-0.43767918702066216,-0.11217702535754152,0.09624888260763032,0.1272241170441452,1
10.725,3.625,1.975,3.25,14.2,14.25,1.4,4.625,674.0,253.0,114.0,177.0,870.0,895.0,75.0,312.0,17.0,20.0,16.0,14.0,16.0,16.0,8.0,19.0,-0.327565341179311,-0.30318523905385303,-0.12740120858235565,-0.26515942140631454,-0.5799282145917452,-0.19787290903572705,-0.15365211362843215,-0.031283139462863485,-0.21589462866741763,-0.007801849144330293,-0.10155071104183364,-0.2768731652617509,-0.07413585286221283,-0.08265170074602482,-0.0767574194605888,-0.5408892144418733,-0.2784653222594149,-0.39625609071115503,-0.057314222295397566,-0.22444501375547965,-0.40601311694865033,-0.5316597932301036,-0.32080636948247176,-0.23620770402624333,0.1979149735925116,-0.4467828877535368,0.1564255387275092,-0.2646056549249343,-0.25110739654841485,-0.172145861164251,-0.11839668438860428,-0.17654758065771944,1
11.625,3.025,2.025,2.6,12.875,13.15,1.425,4.975,802.0,187.0,135.0,160.0,789.0,889.0,66.0,295.0,19.0,15.0,14.0,10.0,13.0,15.0,11.0,11.0,-0.42520260946578514,-0.5314681904572212,-0.1838275441239629,-0.4221435907971059,-0.5214118572349987,-0.4190939639298485,-0.3436124588746186,-0.1350864678789892,-0.3999347113046317,0.15243478479610598,0.1255110025861541,-0.14721609840695302,-0.40738302041556673,-0.2739188486812694,-0.25537860167764137,-0.5847810088086163,-0.1994203179954904,-0.2773336893850857,0.0041037879115938545,-0.11840701102605257,-0.5481074618075099,-0.4927852250127817,-0.2827626832991237,-0.09483449492539532,0.1773615369871155,0.15424323878629984,-0.09405959068040518,-0.05971894289898109,-0.030724717341402672,-0.25872021530802314,-0.11296930451660103,-0.34241109167880224,1
9.7,2.7,2.175,3.15,17.8,17.05,1.95,6.3,589.0,141.0,140.0,189.0,1151.0,1123.0,115.0,385.0,16.0,12.0,14.0,17.0,20.0,19.0,12.0,16.0,-0.5497435881715598,-0.5574057792417201,-0.32552689413568164,-0.3713649316343344,-0.14272729734432335,-0.19650887936938757,0.05757936348180981,-0.13081158415288288,-0.42061762443529144,-0.13145661032154535,0.07995957832113111,0.13543576415473588,-0.319640330884423,-0.23773364042017212,-0.21270064258597363,-0.15445849539490242,-0.538464760274098,-0.5876307316275282,-0.034612149727966064,-0.06926855134334332,-0.675942897887974,-0.6105401507806255,-0.1508965148650661,-0.055830072512134565,-0.1683113036464239,-0.05183730803297346,0.12159679926923417,-0.23960495009281757,-0.13611544377661516,-0.17890065733888125,-0.05116463058788945,-0.34919116835864983,1
9.075,3.45,1.65,1.95,18.65,16.375,1.825,4.575,601.0,189.0,76.0,101.0,1232.0,1047.0,113.0,288.0,16.0,12.0,8.0,9.0,22.0,19.0,10.0,15.0,-0.4955837535792599,-0.3858831162968903,-0.1444073734592697,-0.26126444003930027,-0.3714053939394917,-0.21073486664470395,-0.059515121071656296,-0.22979050726934583,-0.058600175176687565,-0.0992970585406665,-0.14675650590578587,-0.19316784754018365,0.08441117283701167,0.049250147789555526,-0.068381189623065,-0.05923094841262591,-0.4645085415764821,-0.13646185848081627,-0.1976639876719711,-0.1486185183025785,-0.4925594926354836,-0.32050622288707004,-0.27811105560923893,-0.25554171839810313,-0.3517123639059378,-0.15387456513888023,-0.1847638207021474,-0.08403863388338867,-0.2660298315270111,-0.20464851690176367,0.1383568127902702,-0.16879274146808432,1
11.025,3.675,2.075,2.525,20.1,19.225,1.975,3.275,676.0,239.0,135.0,172.0,1377.0,1171.0,105.0,186.0,17.0,15.0,16.0,18.0,17.0,13.0,16.0,14.0,-0.4367848302174884,-0.35237525525724367,-0.2156830616243542,-0.19523073913978914,-0.6967277318555836,-0.47922528023316635,-0.22556453988037553,-0.08061996107380952,-0.35536035289212803,0.06137568064421523,0.04893032584087696,-0.17443322058562644,-0.38273777283800037,0.08317188735959695,0.01803812483354229,-0.1796660487732773,-0.448984056784653,-0.109148043015657,-0.09442497085278492,-0.20113227282908036,-0.20914980146239873,-0.18611706462102723,-0.03290517719136805,-0.33076587493600335,-0.27026218710010824,-0.05070309862282837,-0.14685023107666928,-0.1606592472853515,-0.2841344738324536,-0.1805666495340701,-0.08451032851116858,0.03595620800865742,1
10.6,4.075,2.625,3.025,17.075,13.95,1.9,4.525,685.0,241.0,151.0,206.0,1035.0,787.0,91.0,287.0,20.0,16.0,12.0,18.0,17.0,17.0,12.0,18.0,-0.23386610486485584,-0.32810932765506245,0.01454940034142578,-0.22465340647406584,-0.11732236884357058,-0.23401291674343255,-0.007453294517522743,-0.44259602967464634,-0.1705723631589752,0.3132509550324772,-0.33933465179890043,-0.39478780206900244,-0.49778523376526257,0.13728336417984166,-0.08410114091731978,-0.21949503976953572,-0.3604664844196832,-0.24116362619763487,-0.2656668629447908,-0.3586154953928452,-0.09288307696478118,-0.11543751005312147,-0.25126550923209945,-0.20433184686489436,-0.14973917296461334,-0.05734945123600665,-0.13146363512678153,-0.1631986545136137,-0.239434465944417,-0.07047180911659592,0.09864748481794991,-0.016784651553015346,1
14.875,4.475,2.1,2.225,14.8,11.725,1.625,3.85,904.0,292.0,130.0,150.0,929.0,701.0,92.0,233.0,14.0,16.0,14.0,14.0,18.0,12.0,14.0,10.0,-0.44818358943649655,-0.34894018579305236,-0.21510594219494655,-0.2935164405707024,-0.22072730987877495,-0.39032915540152147,-0.09069988242073317,-0.541975956213291,-0.3585221233574251,0.1351004951807597,-0.2795795846455296,-0.564107699570804,-0.4131985497703051,0.07280509587216809,-0.29020652603665364,-0.5426117921233035,-0.3675590593619136,-0.29722640241081455,0.11000373122825904,-0.15124058435853827,-0.18846879603017322,-0.49772537305094006,-0.12012240304376065,-0.2509954527072996,-0.08841006023975115,-0.21255456145269466,0.08048437565996783,0.05331796720475476,-0.20084892719715203,-0.10367327420601227,-0.056331930955522067,-0.03209639096873222,1
10.45,2.825,1.65,2.375,12.575,8.975,2.025,4.575,632.0,174.0,86.0,107.0,821.0,508.0,104.0,294.0,17.0,17.0,7.0,9.0,19.0,10.0,11.0,20.0,-0.26624194357560493,-0.3357578533858662,-0.3894472011223407,-0.1743912971265257,-0.5320624459332255,-0.45691848900217197,-0.35072606832022923,-0.2542845043602647,0.036451520901377904,-0.12012667469915426,-0.11904007551492897,-0.26226319920331476,0.04406921790358516,-0.18815580197827897,-0.09064612312609456,-0.2748603329600802,-0.5658292959498341,-0.23112024940816997,0.11659209675362191,-0.029454308182159543,-0.11970707725541711,-0.08133028277602931,-0.19746154478973832,-0.3266171046986637,0.0601674387797949,-0.1703954973147397,0.08703738948857204,-0.3419622570529247,-0.3437460697175561,-0.28197288611800414,-0.052532628040081394,-0.002979187595860302,1
9.1,2.675,2.325,3.425,13.725,13.8,2.15,6.0,575.0,151.0,144.0,199.0,930.0,838.0,123.0,415.0,18.0,10.0,15.0,15.0,19.0,20.0,15.0,24.0,-0.28858727962097763,-0.21606560366183147,-0.3996693724727771,-0.18129894083023834,-0.2555606982795329,-0.46441752148965953,-0.3629016867472965,-0.35159362188144283,-0.27341644744088295,-0.22798191824895742,-0.06622425461650723,-0.23342751287275543,-0.37024949053874756,-0.06189322164532402,-0.24560737583815148,-0.3198756554957341,-0.38150628113758844,-0.1254782245650349,0.09596137190541094,-0.055984278170978626,-0.24341583492170987,-0.1525577560716228,-0.20415697994588844,-0.4842642252761172,-0.4477939346370372,-0.37271357008284195,-0.3106540400331597,-0.4011163705538397,-0.7304313810219696,-0.5283457562835799,-0.3415996136870532,-0.3504386399226908,1
12.875,2.95,2.25,3.5,18.525,15.675,1.8,6.525,814.0,149.0,132.0,205.0,1206.0,1025.0,106.0,421.0,19.0,13.0,11.0,14.0,19.0,19.0,14.0,18.0,-0.45101722411175255,-0.2733231049698397,-0.2097584445955843,-0.19798327641677724,-0.3167277342591326,-0.4670531809944074,-0.4166111479232953,-0.22158344096842364,-0.35804412108511524,-0.10963815369285368,-0.04077699148004073,-0.12770568428768322,-0.5076071702697975,-0.26134059692607475,-0.33095091777607055,-0.21465939393800032,-0.7393592829727899,-0.3504042458997187,0.22463993656100667,0.07020220880021684,-0.40154062491234904,-0.2845792701149025,0.01322164204175856,-0.34178604122431155,-0.3224980762945689,-0.04242300538494326,0.02527606054391745,0.03248346285751861,-0.4157632715267346,-0.2113813604064868,-0.22568131406774922,-0.40134529170032346,1
9.85,2.025,1.725,2.525,17.225,11.075,1.625,4.65,679.0,108.0,98.0,162.0,1180.0,699.0,93.0,307.0,17.0,13.0,10.0,10.0,18.0,15.0,14.0,20.0,-0.4820477473486668,-0.005401073412947775,0.22374671543099028,-0.14442588046048588,-0.19800134843143088,-0.16007343180191955,0.024468863631111327,-0.09583158478470355,-0.2502584942661419,-0.48582957042567965,-0.31452977059779014,-0.24465967422025192,-0.16383566339857233,-0.10301168759873605,-0.38043229784617777,0.10195803726263367,-0.5206108744785549,-0.17780669665929455,-0.11995523124851733,-0.1234833430598426,-0.38402722772720116,-0.38470497654036534,-0.32164337887651034,-0.6107243305288359,-0.05672567218784832,0.19484951960382205,-0.06094145463450932,-0.255354686499687,-0.45781228572508337,-0.1990510154967188,-0.08049388832233752,-0.30926094596996606,1
7.625,2.475,1.65,2.725,14.55,12.925,1.8,5.05,490.0,121.0,94.0,180.0,940.0,796.0,94.0,347.0,12.0,12.0,14.0,19.0,14.0,17.0,10.0,15.0,-0.40035496758311895,-0.16797296425020955,-0.37259644935568187,-0.3469904441393597,-0.14957780877932053,-0.24437033851624895,-0.30291206428654316,-0.2669772044345541,-0.237819778563893,-0.0004592822161173505,-0.31234026195790715,-0.10215391871954659,-0.4469392877639721,-0.15761852490313538,-0.23168241292520686,-0.07024508867484171,-0.3317303644847916,-0.19260877466424928,0.14097518215438465,-0.03216954680363392,-0.4060578038398922,-0.5987304800504035,-0.26095908010755364,-0.514255471520345,-0.07464969484289971,-0.08701514383344933,-0.06695657652309439,-0.050508999389319825,-0.5341797494320623,-0.19694926052282535,-0.17779280087375676,-0.20854434796064414,1
9.425,2.025,1.55,2.15,11.525,9.0,1.55,3.875,506.0,101.0,83.0,149.0,774.0,559.0,74.0,231.0,12.0,10.0,9.0,13.0,22.0,17.0,12.0,12.0,0.024125177424015907,-0.41770743918901565,-0.26694608026589367,-0.24387191077397521,0.055888923703118626,-0.2130621830391991,-0.31300619386343703,-0.2846694996211567,-0.320576234178083,-0.20274131214977292,-0.2813446006877599,-0.31813548423567417,-0.35453095008717234,-0.39046263447561097,-0.028327343529903518,-0.016716977562864208,-0.5996281785483408,-0.5246316127352345,-0.1919365092830017,-0.23901566208899921,-0.28379771501172196,-0.314053245197706,-0.26508682078557,-0.2852791051258657,-0.15872992266651426,-0.43775924276046135,-0.30470478100222076,-0.2663902444752486,-0.38187164556913017,-0.39646304387358083,-0.5031933656262627,-0.16069466531851867,1
10.575,2.05,1.925,3.25,10.75,12.475,1.55,4.9,639.0,102.0,97.0,189.0,735.0,675.0,85.0,292.0,16.0,10.0,12.0,14.0,17.0,12.0,11.0,14.0,-0.1590396982329331,-0.2061117507503594,-0.17763731102727368,-0.45005705823903763,-0.06284171569822164,-0.09507731364025623,-0.3470686130281899,-0.3200048509912813,-0.20490153006762635,-0.2836142221943041,-0.32442570136826177,-0.30203752552077484,-0.2848717341394274,-0.18692146943207,-0.259343726799571,-0.39852793548225524,-0.5340775229220833,-0.3913644987656004,-0.4388622585962852,-0.10346784612712691,-0.3245309324198583,-0.3632660927750913,-0.2881280709829047,-0.46791905352545776,-0.16431724660942248,-0.27846587135731016,-0.2224117529649151,-0.359098161196846,-0.3816405394151173,-0.3681856426432615,-0.33477753936960014,-0.4036481068074739,1
11.925,2.975,2.725,4.4,17.35,21.475,1.625,4.15,747.0,154.0,173.0,267.0,1215.0,1285.0,81.0,260.0,15.0,16.0,16.0,16.0,18.0,16.0,8.0,15.0,-0.34203187803751073,-0.2936938609023358,-0.061369479763446644,-0.2962061862187248,-0.17088559404197526,-0.2267240479509008,-0.28751158755865586,-0.18153608317321965,-0.3708153782027364,-0.20295131641097403,-0.1505989595202252,-0.25119608444859876,-0.28873859879550656,-0.12824936824516786,-0.07245767646291554,-0.2850845610058175,-0.6602192633647549,-0.5233050785544605,-0.4118075450730071,-0.35567828349441355,-0.36084351106244233,-0.34853979189581613,-0.27214968216668045,-0.43765367433931385,0.06603021534163396,-0.08962457403401233,-0.2759204627656247,-0.2344980693291912,-0.4989177055287017,-0.265275153201206,-0.4035791821865401,-0.2896085599796872,1
10.775,2.9,2.05,3.425,15.375,17.075,1.925,5.25,649.0,149.0,126.0,200.0,1115.0,1036.0,96.0,367.0,15.0,12.0,14.0,16.0,20.0,18.0,11.0,19.0,-0.3871389332306887,-0.5225412577047438,-0.43892402995011043,-0.3625162122150163,-0.22321472164593356,-0.2783370782016266,-0.4186691630597185,-0.49563924320851027,-0.3172927325486697,-0.22138990717822465,-0.25039092295906434,-0.35258441043727407,-0.24826486587932708,-0.34693843648148115,-0.22493764778600212,-0.4229486395088234,-0.7475534598479737,-0.48806385979048256,-0.5376680265472885,-0.28060770532675,-0.5149822262717855,-0.6790277768561631,-0.4439111545762741,-0.4778718699548721,0.20781422354556991,-0.2279911559459758,-0.052407566359267285,-0.07949239091111579,-0.5253549770923354,-0.164478743653026,-0.12389934307108014,-0.055439256696569746,1
12.125,2.575,1.575,2.5,14.8,12.7,1.55,3.8,778.0,158.0,90.0,133.0,971.0,681.0,84.0,221.0,20.0,14.0,9.0,13.0,19.0,15.0,13.0,12.0,-0.5043235314845641,-0.4997438055409567,-0.07749785128594769,-0.2798880338275191,-0.33703915459758194,-0.2560262337854296,-0.35091981873934325,-0.3858298397475776,0.007077689545486119,-0.07694581816858605,-0.12392534328540171,-0.01757632009263851,-0.13160860608766117,-0.21244161795754857,-0.1270191221036244,-0.011154464547533879,-0.5320650959075894,-0.3266301811046432,0.07520774885841384,-0.08927221701315363,-0.19989957391293614,-0.4111397875973428,-0.13507970420613855,-0.26352792377865475,-0.10650906615437766,-0.2736766946871435,-0.15734394161861007,-0.1556396626361905,-0.027148877268963947,-0.12420724592279744,-0.17804793811504818,-0.13312258620013628,1
11.425,2.95,2.025,3.35,17.175,15.1,1.825,5.325,703.0,192.0,130.0,227.0,1177.0,987.0,95.0,343.0,17.0,18.0,13.0,22.0,22.0,16.0,7.0,19.0,-0.1379352598472452,-0.5291339230754543,-0.192429244340204,-0.36789850399854745,-0.6597884819858701,-0.581114605616509,-0.18298708555713983,-0.04718053496054606,-0.3889974026883791,-0.32176840648620075,-0.04306817283568312,-0.2298771591076203,-0.6149718865787708,-0.4292441636971951,-0.24610241396427687,-0.3410423911271201,-0.6371301720522214,-0.3302878836148343,-0.22109612851231045,-0.18625453941928002,-0.4181901496190413,-0.4196127492448105,-0.32491645611973,-0.4717027188296322,0.12701486214335272,-0.059241346055163145,0.10511108658927526,-0.17188559697282152,-0.3471359536480618,-0.15192025395280184,0.05576206286515321,-0.10495181985970718,1
10.975,2.425,1.725,2.575,13.325,15.25,1.9,5.375,701.0,137.0,92.0,151.0,888.0,1025.0,106.0,364.0,20.0,14.0,6.0,14.0,20.0,22.0,14.0,19.0,-0.32518755707547914,-0.27958354807350855,-0.22803765315165656,-0.47977177608920807,-0.09135469885318127,-0.19900443435362095,-0.18252852492876565,-0.10169773177870677,-0.18744862255786848,-0.2863760609215105,-0.12068601747486463,-0.18562863006877156,-0.36752641057689706,-0.3719658837342672,-0.2480521225622064,-0.1642356754950237,-0.5390765103067077,-0.5275979097258515,-0.3581427061688899,-0.3963367078656464,-0.39132785249835433,-0.2577104961189885,-0.21535882858733646,-0.4513468735443916,-0.11638564614891071,0.23554548451244708,-0.027105466376803805,-0.19955683548024436,-0.45763227415247826,-0.32035885415155313,-0.1286902739781777,-0.3168511518683821,1
9.5,2.55,1.6,2.45,15.6,14.525,2.075,4.4,624.0,158.0,90.0,128.0,1109.0,995.0,129.0,247.0,14.0,15.0,15.0,10.0,21.0,19.0,16.0,13.0,-0.38946651465957666,-0.24582831945330197,-0.324201561116802,-0.2375750938561954,-0.2221333948546437,-0.3934367568942213,-0.009548228940408503,-0.4123794177002403,-0.031978312515036716,-0.4533836172668794,0.05652323577630095,-0.31697357058192904,-0.1130690304232696,-0.3284540842470977,-0.23534781013226658,-0.0669113226582639,-0.7701813385945638,-0.69991154712867,-0.4489353920215546,-0.3916571248121597,-0.3507491112965583,-0.33631862061428475,-0.23183649828928105,-0.5060594060662734,-0.24649535504512365,-0.15474738093925708,-0.0853208070931415,-0.2281074855869336,-0.2903586547317655,-0.3138689599559957,-0.28564911720310443,-0.26344733202376114,1
11.225,3.1,2.325,3.55,15.1,12.825,2.0,5.975,638.0,153.0,129.0,197.0,1076.0,659.0,119.0,380.0,16.0,11.0,9.0,13.0,17.0,12.0,12.0,13.0,-0.21701601242402369,-0.1095496868119298,-0.37142284838666084,-0.21554107500442288,-0.21948649097102302,-0.2786294868654206,-0.3552153546109391,-0.38769580680749965,-0.2900764900600668,-0.22260849131458965,-0.27170115661438543,-0.33603100078480586,-0.2855903583125528,-0.09804175834505399,-0.2169758673450436,-0.44567125500368104,-0.38268026228830815,-0.27444351526904487,-0.17225984882483875,-0.29848734502559626,-0.1181985237836626,-0.3229545277973673,-0.17791701420144557,-0.37054360428453437,-0.3655556276995705,-0.14724381897607067,-0.291842142783433,-0.36116990543204536,-0.3095109807670421,0.04380626999855747,-0.25666895800228456,-0.41740653729363203,1
10.0,2.75,2.225,3.075,19.475,16.05,1.875,5.55,660.0,145.0,119.0,184.0,1245.0,964.0,107.0,357.0,21.0,10.0,10.0,14.0,19.0,18.0,14.0,18.0,-0.49668641847056005,-0.1713025725516829,-0.4352778011993717,-0.3665065670091692,-0.16316513610778297,-0.2363973741255651,-0.28600605691623143,-0.2572489302101979,-0.17799765837223472,-0.21463353522794035,-0.18748660623695443,-0.2615433513682236,-0.2101815220728351,0.02897325147526489,0.0003949353704971268,-0.3758671050026582,-0.8183515142808235,-0.6983430639683228,-0.5431486658176797,-0.3464329569313324,-0.4054623925497593,-0.6239452042947236,-0.29221870994328136,-0.3840275492449512,-0.3437513146093433,-0.23932224982485087,-0.2587480733080014,-0.3590173182535915,-0.36355212570186546,-0.07033777159315165,-0.38224016062039834,-0.25321371385136837,1
11.05,2.225,1.75,2.525,16.375,13.725,1.725,4.125,675.0,115.0,87.0,140.0,1135.0,810.0,107.0,253.0,15.0,9.0,11.0,15.0,22.0,17.0,15.0,17.0,-0.2911870626500756,-0.1491387095304761,-0.33908153114930595,-0.23566091280894502,0.1441772362387448,-0.5621642702559916,0.04536647333096911,-0.41522365778898657,-0.01836655326046133,-0.4492675909655461,-0.1374587976990786,-0.11904855043646828,-0.15447621460518082,-0.25067004316523744,-0.15487114175079794,-0.015801215990927844,-0.47909019385996343,-0.11498621775151317,-0.013473373486205555,-0.2866303804104772,-0.5728883317426764,-0.7576847920358524,-0.5839514535946911,-0.3874677896467805,-0.3728666195643532,0.36659526971694295,0.1243963643485978,-0.19315952921497645,-0.40778197353895507,-0.46199563913236535,-0.3465300938589854,-0.3100961570985766,1
10.1,2.325,2.1,3.45,18.65,12.6,2.125,3.45,615.0,130.0,112.0,193.0,1293.0,701.0,143.0,191.0,13.0,14.0,14.0,14.0,22.0,12.0,15.0,19.0,-0.3271111149393434,-0.29097768459963164,-0.3100413177717552,-0.25336308501985166,-0.07084322260577505,-0.21624615388231205,-0.06134803236570109,-0.4145792255756661,0.005187308811915042,-0.01435026227313689,-0.11750067915393907,-0.418632874132358,-0.16421197614553934,0.059472834120518375,-0.1164455055079192,-0.491542288086739,-0.4753259263834402,-0.08543043058829371,-0.10035524347582538,-0.09249338702374355,-0.11362507590941848,-0.12080927852038405,-0.2133876331087251,-0.35422145913581166,-0.2784339624842848,0.11681031486178954,0.010932341444035827,-0.5295409279156298,-0.24745170621251997,0.12185752528446347,-0.08347861559369638,-0.21593415616487538,1
11.925,2.45,2.325,3.725,18.55,15.625,2.4,6.275,792.0,166.0,122.0,189.0,1077.0,929.0,159.0,429.0,21.0,21.0,15.0,17.0,12.0,14.0,22.0,19.0,-0.5379762781955236,-0.2530697241119072,-0.09942366282714343,-0.09336326418656554,-0.36612868099993845,-0.23611238454459788,-0.048743700887571996,-0.3296507443087584,-0.06730067516066077,-0.3553363355209153,-0.029366678524652204,-0.3413604369859419,-0.22537995684638545,-0.2064949531728113,-0.39925574857472906,-0.3232846461814436,-0.43729496628754766,-0.3538425858773586,-0.5434284182322452,-0.32397868491731396,-0.3617394824741045,-0.5848738701364429,-0.15706136742183976,-0.26989317364376825,-0.576120100533533,-0.2464210410776073,-0.203657525713486,-0.12330162364984695,-0.5596615746593662,0.05795273532480401,-0.13579021748339787,-0.2371297282901754,1
7.25,2.025,2.5,3.175,12.9,14.275,1.675,4.0,461.0,115.0,135.0,191.0,763.0,727.0,91.0,245.0,19.0,12.0,14.0,20.0,17.0,13.0,8.0,17.0,-0.5134883082613262,-0.48262128990466746,-0.4425306005021742,-0.12152742507552279,-0.1296346920407437,-0.1817769654737917,-0.019169537121537746,-0.14024706163540554,-0.4241635843573274,-0.3979045251331849,-0.6226328947532999,-0.2314610084762004,-0.47843000586951573,-0.267402886974853,-0.6744146373853102,-0.2153040324925115,-0.30728077798559134,-0.1651601772813625,-0.40283303096675266,-0.355681543095993,-0.15535534140701962,-0.33517221319063123,-0.4166824788941961,-0.10992164273394463,-0.0552792892322157,0.025076974256444104,0.0549725821145796,0.07974029929015854,-0.32282479885977006,-0.2561123282407048,-0.14056021622227463,-0.26050546538495833,1
8.2,2.3,2.2,2.8,14.05,13.3,2.125,6.025,466.0,131.0,127.0,165.0,824.0,790.0,136.0,389.0,12.0,11.0,16.0,14.0,16.0,17.0,20.0,16.0,-0.12796762325619843,-0.47514745966749516,-0.19278652195905618,-0.06223060525192409,-0.18087070013577372,-0.13059212772579493,-0.00019349695139397272,-0.13612109412198833,-0.16953057117445172,-0.12496862748797281,-0.4475942989006428,0.1814250475053159,-0.39630478479197695,-0.154302969754964,-0.10302036786684471,-0.00917823248911382,-0.41898520674319817,-0.24956513492332286,-0.32218468301891207,-0.1763335952729114,-0.21840188487292325,-0.0989604472590808,-0.23725838694023202,0.12195785627188437,-0.43271108371202405,-0.34542291228504435,0.07536615034404014,-0.14245876021174328,-0.4589600404125052,-0.5054768295404306,-0.173026758482009,0.006517535600290695,1
11.3,2.175,1.9,2.975,15.1,11.2,1.525,5.175,710.0,110.0,114.0,200.0,982.0,752.0,82.0,345.0,18.0,9.0,12.0,14.0,19.0,18.0,8.0,16.0,-0.33106902259848847,-0.5328368943034704,-0.37289444933764987,-0.2864347537008962,-0.19084047912368315,-0.47599029554864575,-0.36750082356959335,-0.43283503030220577,-0.44492743340712265,-0.1495368160237584,-0.06100537192243627,-0.0850367805454859,-0.4506278845514828,-0.19946637822899704,0.2652502419908512,-0.059731911754349526,-0.5511448679480025,-0.2409674702811923,-0.17969732511088043,-0.28828747999915844,-0.6171184112724962,-0.6529187518932095,-0.508835189747314,-0.4352519194345934,-0.406475330642671,-0.4460419388880663,-0.3588124083925405,-0.3119603689127492,-0.685381447670777,-0.377341976024456,-0.25533348748874574,-0.31685028849021235,1
8.5,1.875,1.825,2.975,10.3,11.125,1.575,4.975,538.0,87.0,98.0,166.0,593.0,728.0,63.0,316.0,18.0,8.0,13.0,10.0,14.0,18.0,8.0,18.0,-0.2126531966350235,-0.10278134778133818,-0.13774003653727027,-0.22575486166437678,0.32930773415462805,-0.4265142912634627,-0.14968790552995936,-0.1625713931194696,-0.09965122306634637,-0.3552857179257442,-0.14367979119122526,-0.35031653670645196,-0.3157833250968359,-0.4026782678025997,-0.2589224938850378,-0.34409495105787513,-0.22606874618287343,-0.2853369307948382,-0.21745229681253492,0.0009968388951665755,-0.38697352963718024,-0.36903102783560626,-0.4278240421255549,-0.2354505608832529,0.2452337429874269,-0.37596284262146334,-0.21605496109579392,-0.13486254622505592,-0.4505993665622899,-0.0488888612357591,-0.3136537571875332,-0.3619099851474566,1
10.0,2.025,1.65,2.675,12.15,14.55,1.7,4.75,662.0,110.0,79.0,140.0,768.0,957.0,97.0,319.0,19.0,13.0,9.0,10.0,15.0,18.0,12.0,19.0,-0.47665248076570405,-0.3788738158227224,-0.3038691767530366,-0.33186481717671784,-0.036742281172846294,-0.24867468625826256,-0.2228660273230105,-0.279679376312814,0.06425006136230976,-0.14459455260406875,-0.25059939155125716,-0.012865014181829535,-0.145413642977666,0.013372178489105985,-0.10712184725922697,-0.34261274513415324,-0.3815416218339326,-0.19362280571402254,-0.16696842914720794,-0.21745156545342098,-0.31113986186454695,0.01387426477894228,-0.30593163865417766,-0.5646688655569866,-0.3437502425651356,-0.02951034825538007,-0.22566816705406756,-0.18285105198267387,-0.5239820178379238,-0.24151980918028654,0.039167955905334825,-0.1595384359878899,1
9.675,2.3,2.275,3.575,11.125,12.65,1.95,5.225,673.0,135.0,113.0,218.0,781.0,842.0,108.0,334.0,21.0,15.0,12.0,12.0,20.0,19.0,13.0,19.0,-0.3983443898574273,-0.10497636278665744,-0.0869698151244939,-0.27840011716939883,-0.18165154730728253,-0.004855864670930966,-0.24968638172773586,-0.3535549487066498,-0.13908752769265717,-0.0072216664333124075,-0.27842579934706546,-0.2517235742155548,-0.30880596508960156,-0.03941058259241237,-0.15633317927538587,-0.28197490731956093,-0.4955324027016489,-0.07939851371132682,0.12114554179506586,-0.013569070393994584,-0.2883302615292781,0.06129364388881141,-0.34782337953444165,-0.21136038609731578,-0.2357678478346729,-0.10665658069952408,-0.32872517145116775,-0.24391086243351776,-0.7603961912214057,-0.7195940392936772,-0.7345895442264514,-0.4511378490359262,1
10.025,2.45,1.725,3.325,12.375,10.725,1.85,5.275,654.0,118.0,93.0,211.0,839.0,665.0,124.0,343.0,19.0,12.0,8.0,16.0,18.0,12.0,13.0,21.0,-0.43007583513802616,-0.3922771182594429,-0.13854941929308828,-0.4010341960512221,0.007784368795124051,-0.3300279756547715,-0.014546045444896127,-0.6432009994291348,-0.025426023508183127,0.013519550404748337,-0.09320978464404164,-0.4637843477672807,-0.3649870649616228,0.00648293050845877,-0.19116230860070405,-0.33021301697775135,-0.6592166875822049,-0.32354793786996183,-0.1477015134635012,-0.031179232656081555,-0.2768066162729288,0.24137287154327247,-0.3312596652545718,-0.32222995332125426,-0.2870971303873014,0.23234346969100828,-0.14134909284606753,-0.47872232892325206,-0.40737496059439077,-0.3664299080570944,0.015288479026601015,-0.3078059537954983,1
10.925,2.025,1.775,3.05,13.175,10.375,2.1,4.925,746.0,102.0,106.0,198.0,864.0,613.0,131.0,324.0,21.0,12.0,13.0,15.0,18.0,17.0,14.0,17.0,-0.5171863061386879,-0.33595186576437436,-0.48729895440356785,-0.28395894075961375,-0.0350916532301657,-0.19063542941842962,-0.3624966872704828,-0.07410353200136098,-0.43142665700515975,-0.5019625244094221,-0.2813243109318044,-0.4377038731563424,-0.5066805197799145,-0.3938135059215525,-0.2909900994992023,-0.31749025314963225,-0.5827949512172672,-0.41999340082098896,-0.052298903885657964,0.11306131804869865,-0.2953936218243691,-0.17596105356724095,-0.27942467054198294,-0.3760583010692532,-0.279028739968343,0.028252312254029188,0.03851460640008847,-0.1428522521310783,-0.4974447815057046,0.11459917355323584,0.3526184644041171,-0.04111163168570139,1
13.8,2.075,1.625,2.3,12.825,11.875,1.925,6.925,950.0,127.0,86.0,134.0,784.0,743.0,120.0,512.0,20.0,11.0,10.0,10.0,16.0,16.0,14.0,19.0,-0.8770593621250117,-0.6437758347895659,-0.40703986740198317,-0.22166539373004862,-0.25850473947396924,-0.5219231701387116,-0.38385351935284706,-0.35171758752188054,-0.4343035663689324,-0.36761652059001626,-0.3910605627966215,-0.36467689004345993,-0.28087214163123614,-0.14610046640569022,-0.23234780849245182,-0.15906010863474673,-0.39080338531697484,-0.26583057736880433,-0.33948746277885233,-0.29637654166150523,-0.4465674813088507,-0.4177025012830794,-0.34872449385056914,-0.3949291767519618,-0.2460655930141609,-0.11786549190378502,0.020619046623469833,-0.2823660946364349,-0.7773021921585107,-0.15394169465172047,0.09133694311759742,-0.16749359321728552,1
10.75,2.3,1.875,2.575,12.425,13.575,1.525,5.325,702.0,136.0,105.0,164.0,785.0,852.0,80.0,329.0,18.0,11.0,17.0,13.0,19.0,19.0,13.0,16.0,-0.6809664931442645,-0.46417223340390373,-0.3341286485108292,-0.21831592581945597,-0.16541991227572223,-0.265405581259425,-0.26900490286788964,-0.2771971610563608,-0.2730654319600954,-0.11149603140085079,-0.06005462313583587,-0.1451672266756724,-0.3148281008076856,0.09297967573822372,-0.15954158333840213,-0.17148967951581054,-0.4184918201154013,-0.026183941201157235,-0.19826693737799717,-0.24667082219096184,-0.393649835293637,-0.24383976229562182,-0.3194290683656925,-0.38249897127013943,-0.13814086482940913,-0.2850047362936658,-0.35106196663849154,-0.14344084465907359,-0.15119176791201755,-0.1986427934209855,-0.0352506935800447,-0.10364223597247683,1
12.675,2.525,1.575,2.25,15.975,15.0,1.75,6.225,695.0,118.0,94.0,137.0,1104.0,956.0,81.0,341.0,14.0,10.0,14.0,15.0,22.0,16.0,11.0,13.0,-0.056671542439758193,-0.7066278271483062,-0.16739303432434346,-0.5540497220312933,0.0510596111771638,-0.47509862183700435,-0.29637517044729444,-0.19917612612285168,-0.28502802963284896,-0.1705181834568403,-0.2078457920445965,0.006017283960375782,-0.2644745970573507,0.06197873015262195,-0.058705840896943175,-0.31403429510394654,-0.7034813835739235,-0.4821061098459047,-0.2462676705468197,-0.23614479100704672,-0.6896251497836252,-0.658143101523266,-0.3580500138705018,-0.46648721832162754,-0.0778855454838366,-0.14266242228106624,-0.13320384231862686,-0.14537766700721697,-0.2832398252491327,-0.32114264129810943,-0.3390414655099895,-0.4037645830540875,1
9.65,2.025,1.6,3.3,15.925,14.125,1.625,5.15,597.0,119.0,100.0,218.0,1097.0,828.0,71.0,277.0,18.0,12.0,14.0,17.0,21.0,15.0,8.0,17.0,-0.28548229954401894,-0.5569158126631494,-0.3041048241184014,-0.4343541853132223,-0.04261719945136659,-0.31673289465593024,-0.06053197757618519,-0.20587525412766594,-0.30373261848410993,-0.4695883401647745,-0.1903225046021017,-0.41080752079797733,-0.4921574378476937,-0.06253373782170199,0.005861735443620878,-0.1812979808932739,-0.5614656526358348,-0.20154077874308726,-0.1965727598648855,-0.43994355062769247,-0.5291426242336956,-0.5229497116401545,-0.44798637232073857,-0.47413239855890504,0.10862371010169017,-0.061613916610967975,0.04932163258469495,-0.023042778188356646,-0.263780710709363,-0.4583121178368995,-0.2688608729240718,-0.2734831131643457,1
8.725,2.15,1.975,3.0,14.525,13.25,1.125,4.825,541.0,122.0,110.0,191.0,904.0,786.0,63.0,334.0,17.0,11.0,14.0,18.0,19.0,16.0,12.0,19.0,-0.34603980909017606,-0.4704771805125005,-0.33310601611916657,-0.3343783604137038,-0.13059738785601838,-0.17875361764586467,-0.06609833092762847,-0.21282108116867104,-0.22064330743785165,-0.012307941335412504,-0.027933119153339795,-0.13273887578434712,-0.40640508057311475,-0.2585430374243026,-0.010242450843256982,-0.152411048753359,-0.5926225715315535,-0.4067139770275264,-0.4577978667583497,-0.2677039940828195,-0.6199462874514917,-0.6484905578941776,-0.7144990215874601,-0.4166688096722865,-0.14632570447584867,-0.21579266794851587,-0.022279735159409318,-0.07289064004383049,-0.7043830488695609,-0.6415874091214323,-0.3556211460533,-0.407414435210449,1
9.825,1.95,2.175,3.075,14.325,13.775,1.725,4.25,608.0,111.0,109.0,172.0,858.0,765.0,98.0,268.0,13.0,10.0,11.0,15.0,14.0,18.0,10.0,13.0,-0.426046035478981,-0.4325843405193317,-0.32659508673650545,-0.2846462917039759,-0.1580514907187275,-0.31104777560483976,-0.20286857975747793,-0.2146467573490817,-0.25981393038963047,-0.3421759962078989,-0.23804989363449996,-0.3236841038596925,-0.44616405761768174,-0.3784200651756067,-0.3810510045528656,-0.10714843375973732,-0.3646326332464726,-0.20864050977665452,-0.20662456842754132,0.0071890524771185335,-0.2507742551798302,-0.1557797895014227,-0.2658006991879532,-0.29201694850159854,-0.27195953644988163,-0.2556946891023146,-0.18980973018314376,-0.3857671046494277,-0.2232924105939887,-0.12058749397157094,-0.23018191225748436,-0.30587515514183067,1
8.3,2.05,2.325,3.425,12.975,15.175,1.675,4.15,504.0,101.0,138.0,205.0,700.0,824.0,99.0,271.0,18.0,12.0,15.0,15.0,13.0,12.0,12.0,16.0,-0.48845111448640455,-0.5073827366796705,-0.4091035898567401,-0.4910927050734641,0.001873135365754476,-0.2986113686728149,-0.28696032345379474,-0.36851695710012233,-0.4244755676018232,-0.3733251849106307,-0.1265973510268001,-0.15465306173805266,-0.35684585576875816,-0.43820080816335893,-0.22076687664540856,-0.2739051650396283,-0.23218804022591927,-0.3366765214398379,-0.338789746201042,-0.022621044585300596,-0.37789750191971094,-0.4285820515174809,-0.28839697855057866,-0.16416758866849288,-0.12238516001548334,-0.30565755025523006,0.042223624538417596,-0.6182234165702116,-0.3683954251269151,-0.25842404791591106,-0.39653507964873386,-0.3216148160482267,1
10.3,1.9,2.15,3.1,14.6,15.15,1.925,4.8,686.0,98.0,136.0,206.0,906.0,921.0,106.0,256.0,20.0,11.0,10.0,16.0,17.0,15.0,12.0,13.0,-0.6016161122997951,-0.5579886055344839,-0.3646831315397837,-0.424274961177906,0.0183784359443333,0.10743952613025756,-0.22899077165693035,-0.1728382327804884,-0.6970212582268999,-0.5584803086415423,-0.2769062401291016,-0.1043050714108129,-0.46861805086746655,-0.4774139875010917,-0.2665558257172161,-0.11225749770078428,-0.5423863997834657,-0.5518239317900034,-0.37888606542309544,-0.24128040200717005,-0.405000661504851,-0.3192711180546422,-0.3480405502383753,0.015561447738963294,-0.002594539037733102,0.17628133355892328,-0.028792808228645324,-0.1532665706249077,-0.0507730787946566,-0.1878918407042945,-0.5209241588763339,-0.10530357242654027,1
9.475,2.575,1.7,2.775,12.325,13.275,2.075,5.525,624.0,158.0,108.0,178.0,820.0,690.0,118.0,361.0,16.0,14.0,6.0,16.0,18.0,16.0,11.0,16.0,-0.531146400955904,-0.2906827517221374,-0.277866575310369,-0.31850016032081724,-0.4245012399000961,-0.08698395764490033,-0.404786382032637,-0.4577929587365824,-0.45873997420040075,-0.09723501662168667,-0.23586798842786966,-0.24933408248577743,-0.42082423730628354,-0.22736057312498434,-0.4461617320065607,-0.23597632906514937,-0.6171846306424994,-0.4492842664170971,-0.18509510514929609,-0.22747089433209852,-0.12372636841160081,-0.11681892793143601,-0.27332932948136246,0.1407405918076625,-0.260550115482563,-0.13683863637970053,-0.23358637141851896,-0.2807127100253035,-0.6112572216201192,-0.19889263785618538,-0.049869893350541296,-0.08786677908260165,1
7.35,2.625,2.025,2.725,14.6,11.25,1.725,5.175,455.0,166.0,119.0,158.0,996.0,704.0,111.0,339.0,20.0,14.0,14.0,11.0,21.0,18.0,15.0,12.0,-0.4991978201113332,-0.5441275345558133,-0.3913138642262696,-0.2836966842134519,-0.3847765097716015,-0.371961667336554,-0.27985706055887205,-0.6110961284611068,-0.21141992426415257,-0.23911969351725174,-0.2729397146803456,-0.42955109673665054,-0.2879183530098911,-0.2397669385499847,-0.34788847957445096,-0.3868028113935031,-0.9221503066008835,-0.6853086448476913,-0.6102256395649553,-0.36363053565222536,-0.3907682409375437,-0.5087744661752113,-0.2331091876999394,-0.16365077152578295,-0.33717880639218517,-0.08111972752519025,-0.31704185331661866,-0.7115306041151046,-0.34962723952898955,-0.031102520349882305,-0.0977379253566515,-0.5877984105978339,1
10.55,2.3,2.25,2.625,16.3,13.4,1.95,4.525,641.0,148.0,142.0,176.0,1039.0,868.0,117.0,276.0,15.0,19.0,19.0,16.0,20.0,17.0,13.0,18.0,-0.20171545775392924,-0.6230258382181986,-0.004997902150287752,-0.20982176500925137,-0.29248912248095227,-0.338555066042432,0.031058322308480404,-0.17146767855697384,-0.4052365569505458,-0.4871088097595936,0.22094806320734112,-0.08724082547407734,-0.24914440241376887,-0.4288160547059767,0.028792559899808452,-0.42310247418294594,-0.39261104768507676,-0.3473740077743008,-0.24818799473711084,-0.12077132818696294,-0.7187456421510109,-0.6411714951450702,-0.09569056284181876,-0.14823158313338983,-0.2623670958872035,0.13102924952458717,-0.10890641307912796,-0.185126905681391,-0.31796977129297477,-0.05097183339755985,0.14166504545675623,-0.09173656554224563,1
8.9,3.175,1.65,2.875,19.6,12.0,2.15,6.325,503.0,211.0,106.0,183.0,1198.0,762.0,118.0,403.0,12.0,20.0,18.0,20.0,18.0,16.0,10.0,17.0,-0.34841509038521096,-0.19499308606682061,-0.371362256389956,-0.4326826381522941,-0.4865156360078444,-0.13765660550341144,-0.0012103700297627204,-0.18020742193961783,-0.5703841076167487,-0.5424423242937505,-0.16036235881741848,-0.1886303948048799,-0.3327843077774788,-0.24934260102682795,0.12931147746861493,-0.07464504797631841,-0.44017737264558543,-0.44020920191713525,-0.200276894720342,-0.20362773509577142,-0.34760317689884374,-0.5191145272907894,-0.23179726959647767,-0.15402858908789321,0.004609703864409138,0.10379718005870417,-0.07919077121672634,-0.037677660674153894,-0.4760803557594904,-0.21062677877207855,-0.2683960887082775,-0.4162290749723743,1
10.175,2.475,1.275,2.675,23.7,15.475,1.75,5.95,641.0,156.0,82.0,154.0,1558.0,975.0,89.0,394.0,17.0,13.0,12.0,14.0,20.0,20.0,11.0,17.0,-0.45548950161301105,0.017333179588323932,-0.11706272344249223,-0.4155361778297722,-0.45649011575892146,-0.24125947165456538,-0.10256658589612347,-0.2863934804399816,-0.4129010313320219,-0.2046050881192249,-0.13825304453506898,-0.23661057155594079,-0.09515357894579463,0.07566854747229909,-0.06984359475805126,-0.09809187444408869,-0.7078930644047876,-0.37005559738507027,0.1560390523988737,0.004877586986629998,-0.4843119883355968,-0.47791754052802793,-0.20123437542200046,-0.12478921742086126,-0.1536409556472989,-0.26906279447575937,-0.0317359474513268,-0.09325444175592344,-0.637840396853705,-0.5823627255436837,-0.41218525810563394,-0.4394036367629418,1
7.25,2.575,1.65,2.525,24.8,15.95,2.6,5.65,441.0,140.0,106.0,152.0,1545.0,1009.0,143.0,383.0,17.0,13.0,14.0,14.0,17.0,15.0,15.0,17.0,-0.46347749138842953,-0.31345514052233725,-0.17148366199816012,-0.25578020895791775,-0.3019233953284252,-0.47637305608625374,-0.30649900547306197,-0.3560621357319818,-0.3150203943193038,-0.1851139316181527,0.25774748894717187,0.09716672993763163,-0.3121119721773639,-0.10314691962901189,0.13415735448324584,-0.20409158402376462,-0.7615859435489554,-0.6548525711735206,-0.13463983034480526,-0.2590301335188483,-0.5205889880648558,-0.4959058583774407,-0.25306073078716157,-0.4323521584070399,-0.554306956278221,-0.46482934332774695,-0.35077124682609184,-0.29694161923970525,-0.3743722833430512,-0.3065265058509774,0.012386346088282521,-0.19718026655410476,1
10.9,2.35,1.675,2.35,16.825,11.675,2.8,5.1,706.0,126.0,90.0,152.0,1061.0,742.0,174.0,328.0,15.0,13.0,7.0,16.0,18.0,21.0,15.0,15.0,-0.27687313705437533,-0.5150425933977965,-0.2189555427870941,-0.5166169125734901,-0.15053974452435126,-0.47730736601531126,-0.17310348568606848,-0.5047307422527163,-0.2255398365036311,-0.31359519426484606,-0.05336492496691323,-0.05732399408952369,-0.42354674023077493,-0.05913947198022004,-0.03891689790109788,-0.28127707257458634,-0.4594685472540002,-0.43543571767807104,-0.011135203181553328,-0.07843736567613217,-0.27082644910942016,-0.4259810776142234,-0.1276200247876917,-0.4940702410053221,-0.4970187801867857,-0.4651411561799918,-0.19136566271836944,-0.30227065767042016,-0.3459370154637739,-0.1567031349368079,0.11629290102163689,-0.02632333677680096,1
9.5,2.725,1.775,2.45,18.75,13.375,1.95,5.45,540.0,143.0,93.0,125.0,1172.0,806.0,91.0,292.0,14.0,14.0,10.0,10.0,20.0,15.0,7.0,11.0,-0.21056624860171055,-0.43365766983514226,-0.4234563607302796,-0.4478325214175146,-0.35142217045364593,-0.387613574936826,-0.3785001559196309,-0.2924127455775329,-0.10296653706584594,-0.22087339316488855,-0.26996035068752783,-0.043379993132638614,-6.929407089753759e-05,-0.019280905126318647,-0.1257255209924772,-0.15450067034940976,-0.5075654725215022,-0.3893424615033736,-0.35279302343125013,-0.0631947735721062,-0.2026312798496992,-0.25871699566446055,-0.19882897161504967,-0.18870567734585952,-0.006492276050731163,-0.17036052477867747,-0.3562885481628396,-0.2211817531696278,-0.1840041527538716,-0.1617381801124917,-0.4440627544051064,-0.29257417048901385,1
13.75,2.625,2.3,3.075,18.65,16.525,1.975,5.05,805.0,163.0,138.0,178.0,1180.0,1081.0,118.0,301.0,14.0,16.0,12.0,13.0,18.0,18.0,13.0,15.0,-0.25979672926634506,-0.3129340869966924,-0.34196653095357876,-0.1625402146639219,-0.44347970301597234,-0.08631472368235277,-0.09961590409801763,-0.24492477803315463,-0.3241967757024699,-0.16143513438926332,-0.17472768297487862,-0.18677560436408555,-0.240105115583822,-0.07074356672281683,-0.1453363257465009,-0.22292681422794572,-0.3547057063529381,-0.37094680968679705,-0.2774402287886696,0.004570378254997081,-0.43227165434952475,-0.3033824707331057,-0.5426912914997942,-0.18029138674795567,-0.24124258562841613,-0.14090859496398936,-0.11201664926507518,-0.3863334874549003,-0.1826383358125132,-0.32139815039919584,-0.1540396016686399,-0.2584021369054411,1
12.8,2.575,2.4,2.525,17.975,16.2,1.9,4.05,813.0,149.0,143.0,152.0,1237.0,1163.0,108.0,253.0,15.0,14.0,15.0,10.0,19.0,17.0,10.0,17.0,-0.18391420232903835,-0.4545097510306485,-0.1628335078412788,-0.3016466168766489,-0.21038365339873402,-0.24544237175102754,-0.12711823001550204,-0.25347780750667004,-0.38607805189229283,-0.3389944991649586,-0.1510945324288752,-0.12076447565216249,-0.22303369001184503,-0.2248297036952179,-0.01992352501848293,-0.1676413551214134,-0.6472417845418782,-0.3099352266401186,-0.28115132506363866,-0.2443172461036565,-0.529980737760385,-0.2503419417429032,-0.47088321311079695,-0.2373767199344163,-0.3710858319288058,-0.18257695042232427,-0.44540815798166306,-0.31727711526998603,-0.46537839725657915,-0.41116506828103166,-0.2454041675373137,-0.15451479855960412,1
12.45,2.275,1.8,1.625,17.75,15.65,1.9,4.8,783.0,129.0,100.0,98.0,1225.0,1012.0,121.0,286.0,17.0,14.0,15.0,14.0,21.0,19.0,10.0,11.0,-0.34064472144975455,-0.5161481760124849,-0.19711174160196676,-0.4068654759589793,-0.44282336585754967,-0.2243722840278138,-0.20871143070705228,-0.27670777876636654,-0.3866717755039416,-0.3577094333516662,-0.2421350607291599,-0.10743239880924235,-0.504143908116983,-0.5667607037131157,-0.24377994541320255,0.020220696404691568,-0.6724476904484268,-0.20636468664997099,-0.09845968222206919,-0.17340352840027135,-0.8281997931879684,-0.7664631292873143,-0.610456927805284,-0.4155311460166692,-0.31722452369166454,0.0023356530343913036,-0.36587469854219895,-0.24401815677371502,-0.20573674513192355,-0.017408549131341416,-0.31273103041776,-0.2969572000281801,1
11.05,2.35,2.2,2.75,16.775,14.45,2.2,5.875,772.0,120.0,114.0,174.0,1105.0,1042.0,137.0,397.0,19.0,11.0,13.0,13.0,17.0,25.0,15.0,19.0,-0.45070480911198935,-0.11574504215333876,-0.1839745835790474,-0.3884415907156944,-0.025193968194333345,-0.2724236615702553,-0.14309527831214006,-0.3904371085940688,-0.3161044293771803,-0.2239332153671173,-0.29200220414301487,-0.25402490547531725,-0.42508534322634683,-0.19602282778857322,-0.32983137097940746,-0.31508758808545956,-0.5419720927890053,-0.30252519905829245,-0.27470762155186607,-0.23487988871654092,-0.7030337553987411,-0.4936271714951256,-0.32487772549493443,-0.09950890164454244,-0.6883681538780873,-0.49807789769284877,-0.3295288530222334,-0.20182729089550255,-0.6465664400724579,-0.2865937195770902,-0.15096426496582765,-0.1736022214039541,1
13.8,2.675,2.2,3.0,16.35,15.275,2.0,5.3,879.0,131.0,105.0,178.0,1045.0,926.0,116.0,351.0,15.0,11.0,10.0,16.0,15.0,17.0,14.0,15.0,-0.4028591576172152,-0.30243535305963465,-0.23510796551030871,-0.30487572752347697,0.1269759391919271,-0.35043123129525383,0.05518942631754928,-0.40572390176485335,-0.09369607900838628,-0.3716394709287205,-0.09726144272606727,-0.20995075314321607,-0.42026922436467107,-0.5202414753586351,-0.35994430051767456,-0.2678849211516253,-0.5874753871109002,-0.6043482111462773,-0.29546522665574465,-0.24056165219989384,-0.36633020411327216,-0.48591807656748914,-0.26197284884299443,-0.2825336465172588,-0.34571934783909697,-0.40566428812965477,-0.21650805401856257,-0.3625164736352679,-0.6059453689230079,-0.288816989848198,0.012428460658591838,-0.132503577544438,1
10.675,2.25,1.95,2.85,10.375,12.75,1.8,4.125,560.0,112.0,104.0,193.0,673.0,767.0,108.0,257.0,15.0,11.0,11.0,17.0,21.0,21.0,14.0,13.0,-0.209983846788103,-0.28670126238250576,-0.40206510145639185,-0.11567839288850737,0.036950668475698924,-0.2535054136330906,0.014854296910966432,-0.00029296792500543785,-0.16241479005854673,-0.04817832061986516,-0.17562221675221557,-0.1406648418631827,-0.5865545173356745,-0.3728594581016668,-0.18183385245916392,-0.13097625876286617,-0.7038790297535271,-0.4745216522356225,-0.001002441005014765,-0.08526671444992934,-0.20978586850025274,-0.31162268763620776,0.18313957378399184,-0.19530629712136952,-0.11093669586662992,-0.35811120921830386,0.2691381454216204,-0.25059124543078515,-0.34566404199505624,-0.3190832037918081,-0.5997995527792003,-0.3455795854169469,1
8.7,2.2,1.625,2.125,15.575,12.075,2.125,4.375,465.0,122.0,88.0,139.0,943.0,745.0,113.0,262.0,17.0,10.0,12.0,16.0,16.0,16.0,15.0,17.0,-0.19730392407885217,-0.45080546302809826,-0.20061920396085078,-0.13368302409158384,-0.3335996303531367,-0.2362994643930879,-0.22885746034484936,-0.15452753366408611,-0.16368378367194397,0.16127851948580668,-0.13553687463568906,-0.13813804813010183,-0.4896363745184142,-0.13936272509717515,-0.11856553949878985,-0.08121171438664908,-0.29892250250557484,-0.49477087224143074,-0.06992818212138786,-0.33929278644941674,-0.28026425739505595,-0.49905205455709195,-0.24588514828696986,-0.21339478672305423,0.08409713494698359,-0.2416331399599711,0.1706936332764058,-0.32341383765469073,-0.2800062400724529,-0.4468645880417827,-0.3006722761387985,-0.15662759381921593,1
9.775,2.0,1.425,2.15,14.05,11.3,1.725,4.525,647.0,125.0,89.0,137.0,899.0,735.0,94.0,291.0,19.0,10.0,12.0,16.0,16.0,18.0,10.0,21.0,-0.32473734383019687,-0.08716767746904527,-0.2509077875370348,-0.1424726190913013,-0.376194341073167,-0.08381382691785429,-0.032084684038079785,0.0053950792333265435,-0.26953472495466535,-0.16067648868478537,0.03719381163966768,0.1691698769296059,-0.4265432533378025,-0.2115044392447832,-0.21381290324974594,-0.4503176370653132,-0.41334451621544005,-0.2618192016986455,-0.14589327611287722,-0.1401298081038007,-0.2937423705490445,-0.4900632660407168,-0.0780066608985436,-0.16210649069793323,0.07562550139393202,-0.07444933190073576,0.13075746290355375,-0.3450540598820791,-0.34705932656948035,-0.3076346337181594,0.08238183829131943,-0.23585811056692033,1
15.4,3.475,1.95,2.7,18.2,17.125,2.2,7.275,949.0,216.0,108.0,165.0,1170.0,1151.0,121.0,425.0,15.0,15.0,13.0,11.0,18.0,20.0,8.0,13.0,-0.4001851111826343,-0.7125757558748893,-0.4169804711650834,-0.4922900076095928,-0.5152120441719524,-0.5610689534039383,-0.44332683069346895,-0.44311954620350846,-0.3667896391558755,0.20063533381287466,0.15177440258139036,-0.0978012828038257,-0.5101269755161288,-0.14133790961728285,0.1403436703513765,0.1554412238477227,-0.5189339718738043,-0.3361413859868636,-0.19508857965888277,-0.17626758098154058,-0.6041764057865309,-0.23523701915200854,-0.31679903542081583,-0.40275457811758636,-0.0319370668308501,-0.04673686276796628,-0.01719505646852978,-0.4006780672010536,-0.3395160135098433,-0.5189432182144208,-0.25601945403501075,-0.4417333422154691,1
9.325,2.725,2.375,3.35,21.5,20.275,1.625,4.575,509.0,145.0,152.0,213.0,1486.0,1386.0,77.0,275.0,12.0,10.0,13.0,15.0,21.0,19.0,7.0,16.0,-0.11452677542705805,-0.6664409122333236,-0.2444434235408253,-0.3648962048227123,-0.184536575593055,-0.2295307843653133,-0.2987687271525989,-0.22705034693762155,-0.4582634834872384,-7.921296498906566e-05,-0.13582459451589718,-0.3813146042591859,-0.4864844672577472,-0.05955490828354012,-0.003611105555042964,-0.19114131789651947,-1.0503293174331785,-0.7476982390958015,-0.25313201235775334,-0.06251849980253724,-0.7137221821920434,-0.4474020512951792,-0.18122944443641795,-0.22331459123179476,0.05817331302176153,-0.2649962550495209,-0.19321970427136562,-0.31680372906739107,-0.2988772571573267,-0.5058760816151088,-0.34310911722237836,-0.49941866899233844,1
13.05,3.475,2.575,3.75,17.575,19.275,1.725,3.75,793.0,192.0,145.0,207.0,1156.0,1118.0,104.0,226.0,17.0,15.0,14.0,16.0,16.0,12.0,13.0,13.0,-0.3189308259751236,-0.2135110390498415,-0.3821327490516592,-0.2648735507604296,-0.20290733385350274,-0.38903057239935823,-0.24997259399619665,-0.3967380787199568,-0.40233876900328547,-0.5635642923320041,-0.43185159062133366,-0.4578433392689848,-0.4142391983085113,-0.5338256273017609,-0.33615899930884835,-0.5736967976407349,-0.5914253831602264,-0.5807811626532874,-0.49565087947674397,-0.3370985393594474,-0.48128632768977414,-0.5785911322639541,-0.5792899388256875,-0.4162567952815247,-0.09619253625071732,-0.3119781351794426,-0.13143973515360918,-0.30329993684286616,-0.4013941893313379,-0.42049516968180867,-0.3301638390502434,-0.3749567896375679,1
14.15,2.975,2.65,3.275,12.95,14.525,1.875,4.975,997.0,172.0,152.0,197.0,739.0,873.0,100.0,295.0,23.0,11.0,15.0,15.0,13.0,19.0,10.0,13.0,-0.6005837068769169,-0.36786299833718583,-0.5832040531520981,-0.3811836524541568,-0.314731073853222,-0.5618270467695209,-0.3147329611251484,-0.32676570826534473,-0.39952747039026776,-0.3490133030079562,-0.17846405388493386,-0.2611723890383827,-0.27033132103331503,-0.1863642538152295,-0.04756256797204909,-0.26095376721027236,-0.519917543860891,-0.7023267682889922,-0.45908771222848765,-0.5202465192079667,-0.36546988329471375,-0.3177985280575784,-0.42294386772342113,-0.19118485035479965,-0.20755381407380888,-0.16028398614574538,-0.29250750477738796,-0.26809072419521746,-0.28305187839602675,-0.11209680527989474,-0.47547317350678214,-0.19630668844372184,1
12.975,2.475,2.175,2.625,13.725,11.05,1.975,4.525,843.0,135.0,137.0,161.0,897.0,698.0,101.0,255.0,14.0,12.0,15.0,16.0,19.0,21.0,12.0,13.0,-0.649139489260953,-0.7262388282544247,-0.580525173810548,-0.2862220233549063,-0.4524062684190289,-0.6145582550908469,-0.5192824940822343,-0.26915221448650667,-0.3579767051823864,-0.04346016572856552,0.06300536868515026,-0.2664585652235957,-0.2863122788272286,-0.16195748796084183,0.1442043382718994,-0.3428881819903338,-0.687873508436784,-0.493369563030632,-0.24172281797836484,-0.12260869503238649,-0.46962932271123975,-0.3518191051335764,-0.4604361023594616,-0.2863253627750524,-0.01158663530823461,-0.07052221737829867,0.13999457250928318,-0.12720203000890226,-0.34554039922929786,-0.41695168903133956,-0.3303073465677164,-0.07076790854706788,1
11.325,2.225,1.775,1.85,17.375,14.3,1.675,3.7,627.0,140.0,101.0,121.0,1245.0,949.0,89.0,190.0,14.0,20.0,10.0,13.0,23.0,21.0,7.0,13.0,-0.26158337397664505,-0.18928725422650056,-0.2847741933159873,-0.1650535966873937,-0.2479604813350498,0.24479060865348914,-0.11949449398899624,-0.288245999959329,-0.32879941394015505,-0.27580283423358487,-0.10703607761121571,-0.31838800727055694,-0.14853808962524948,-0.20194631126466905,-0.08541530682197901,-0.11638569613701859,-0.6832438551526632,-0.5145827232953063,-0.007391457587693762,-0.2891291066370914,-0.6108128019188279,-0.531400236110371,-0.13462284545815978,-0.24307224060394916,0.06434288820655668,0.038203962094772434,0.011722629499767353,-0.13196859370443112,-0.46471715459829704,-0.595303111351177,-0.5968448981456436,-0.39977056797957145,1
9.95,2.175,2.0,1.85,16.525,16.975,11.575,6.8,660.0,144.0,105.0,95.0,1063.0,1033.0,610.0,356.0,20.0,16.0,13.0,13.0,20.0,18.0,14.0,14.0,-0.32564714331420125,-0.11040882031546438,-0.11326376186288001,-0.25872299719529257,-0.20354008503188123,-0.19783238055340735,-0.08413854835819076,-0.2818687181621769,-0.08456872882075245,-0.20081853269239644,-0.4073886614962667,-0.181758710679278,0.02484367449789186,-0.4037659266875413,-0.13889860664367293,-0.24669456794034578,-0.6032104868070517,-0.4411508889042493,-0.31980234587254813,-0.31628083817117564,-0.49588649961509984,-0.6613812743625548,-0.36137093417359434,-0.3598754139571825,-0.08633510359898124,-0.18798689030798085,-0.34070395890552096,-0.32422902618379845,-0.004893040811443433,-0.23342145659719768,-0.3329850561278155,-0.21532213054212723,1
12.875,2.575,1.825,1.7,19.725,18.725,5.375,5.0,762.0,138.0,103.0,84.0,1272.0,1231.0,347.0,280.0,14.0,11.0,10.0,10.0,17.0,18.0,14.0,15.0,-0.45025105317360214,-0.44144688015366257,-0.48054168850387546,-0.3375774801143242,-0.14963151608140388,-0.22663957551132322,-0.47830438699824135,-0.14809381618436993,-0.42386382339095036,-0.32662935406412297,-0.22865494222451235,-0.032800762060669536,-0.10868591972864672,-0.32748387050395755,-0.17023582946817414,0.12601559265696427,-0.47002431309905857,-0.4867843549900963,-0.10078538538089588,-0.4601594341323553,-0.30165712147310164,-0.4896590720520967,-0.08263419891989729,-0.5011009441129833,-0.6834094078641704,-0.6425819494305829,-0.3785645246769278,0.21669429507356724,-0.25598655735993436,-0.14712593626075676,-0.29212416281973913,-0.4709591853534493,1
11.525,2.375,1.725,2.075,14.2,14.875,2.75,5.25,762.0,134.0,97.0,131.0,944.0,801.0,139.0,284.0,15.0,15.0,11.0,15.0,18.0,17.0,7.0,14.0,-0.3926988705206784,-0.2348264144079026,-0.14412499717618105,-0.2308921537544864,-0.06709016487964804,-0.28184839040848897,0.016123191893850475,-0.25174410412758325,-0.18244888305359466,-0.34134459281922963,-0.07398233870824296,-0.1480740314314781,-0.41428153298423526,-0.2502858619357167,-0.25018440933582614,-0.29318787236734284,-0.5117228226572741,-0.3844084778366331,-0.3995636509444351,-0.304665800317066,-0.2868656982966788,-0.40468796178934574,-0.416336536470023,-0.2264751041933367,-0.02309868068574534,-0.23873018578595756,-0.3339876577367387,-0.34606751362525007,-0.086513833874211,-0.264650606535848,-0.1800445195011461,-0.385484704487607,1
8.65,2.3,1.875,1.925,17.15,13.975,2.1,3.8,518.0,130.0,103.0,105.0,1181.0,905.0,106.0,194.0,17.0,17.0,12.0,12.0,21.0,21.0,14.0,14.0,-0.1961545448437858,0.019460005820446914,-0.2617814135556822,-0.17722463329066965,-0.20022400963060139,-0.11511623642959655,-0.10828242220176078,-0.21396854952589967,-0.4435663730880753,-0.35666466173659633,-0.11696960164131194,0.012737162736800532,-0.25723974393430876,-0.27555862063537145,-0.1820399039847143,-0.23768811325372993,-0.5068474644958587,-0.243178656099631,-0.20566243509243803,-0.3333716700267123,-0.39708803345982446,-0.1818268555248381,-0.24871754942226854,-0.3584899073058114,0.11804906050589423,-0.10354655669084069,-0.07661998166438513,-0.03463403321094495,0.05742725416056792,-0.08599238275596614,-0.21015162827900474,-0.1290982834920125,1
10.875,2.9,1.85,2.1,16.6,14.725,1.775,3.075,742.0,172.0,119.0,125.0,944.0,880.0,110.0,155.0,15.0,14.0,16.0,16.0,14.0,15.0,16.0,11.0,-0.6420917797997973,-0.4553101308090738,-0.5112238219600451,-0.30217295082170936,-0.4092553751894439,-0.31403818771190645,-0.3309806928053792,-0.4393765967539744,-0.5353706362630505,-0.26672977575939194,-0.14192550789415645,-0.1511743053486342,-0.17523275280017206,-0.011384059513188861,0.08517354628150209,-0.24407522059361628,-0.2214357908014858,-0.020727341331794633,-0.017976103765947212,-0.25011508300688867,-0.22259083288959633,-0.21040447447971453,-0.2886426256736995,-0.4150088456660619,-0.3898354218496567,-0.41175368895597403,-0.2191125865570533,-0.3548486009084433,-0.06348817938451215,-0.2265880815765863,-0.1630470455479723,-0.2190829325269239,1
9.825,2.95,1.925,2.375,16.85,14.375,1.975,4.275,699.0,186.0,119.0,141.0,1176.0,917.0,119.0,268.0,18.0,11.0,15.0,13.0,23.0,21.0,15.0,19.0,-0.580292435620797,-0.4213475519557925,-0.5350928297259939,-0.4480734598638084,-0.39065681298363714,-0.3973445548897067,-0.33695552804142526,-0.4919592538982205,-0.3496504753472275,-0.18046208464265756,0.015027248849452363,-0.18748905233723592,-0.21654033111753668,0.0465947671772981,-0.17694191937862222,-0.22182607975162721,-0.886611511752424,-0.6342985942522974,-0.34578627299652875,-0.14454319625438083,-0.5670193071252189,-0.36960705570048336,-0.43624163944844424,-0.3780192440178191,-0.24047430800373712,-0.43910056169492767,0.17070582620165178,-0.2517553254295112,-0.47199540143861507,-0.48291475907240217,-0.23325271012401924,-0.3168367138971135,1
12.55,2.75,2.5,2.525,15.875,20.325,1.875,5.65,789.0,168.0,144.0,148.0,1103.0,1338.0,87.0,365.0,17.0,14.0,13.0,13.0,16.0,20.0,11.0,16.0,-0.602616890975681,-0.46015764349964006,-0.4881581125661417,-0.28101834754907073,-0.45929687810312725,-0.44764440639395553,-0.30512212881015427,-0.05982091432273142,-0.467299477402789,-0.5431966250075756,-0.35981275503472865,-0.35128834559811256,-0.30971457017559717,-0.5345313815736585,-0.42045776358936937,-0.3485797597438857,-0.5585695410262249,-0.5163996613497502,-0.3348914837617206,-0.3585285953762586,-0.4428775411704337,-0.40727316638986155,-0.2564171913550167,-0.24077273426767912,0.06750540685115809,0.13518634741306879,-0.08588100410263735,-0.4157649021606537,-0.6167943778044362,-0.16223198352905846,-0.16840374183208207,-0.17341506630732284,1
11.45,2.875,2.45,2.35,15.475,13.25,1.8,4.475,788.0,174.0,127.0,127.0,1118.0,835.0,97.0,290.0,18.0,16.0,14.0,12.0,18.0,17.0,18.0,17.0,-0.583328501124334,-0.44839752198098426,-0.18284865710196954,-0.35679464492289453,-0.5037366661766293,-0.4282068022550265,-0.2871724456257198,-0.16223124540707648,-0.15310805696456128,-0.36858399749666537,-0.22079066297365615,-0.16387543933968607,-0.021057511686320522,-0.4574362987877159,-0.12464102565283867,-0.20249142034942566,-0.6221377265445727,-0.2458197448791002,-0.3197001913006437,-0.3847493222118122,-0.5523357570436864,-0.36241325438173844,-0.2068671937315457,-0.0785546253529727,-0.00917030449574883,-0.204244370785535,-0.10105304441150505,-0.16241695460932662,-0.537616058571689,-0.16719596911750342,-0.20931969702944542,-0.28898180643998567,1
7.975,2.9,2.175,2.675,12.85,15.025,1.85,4.075,459.0,156.0,137.0,156.0,852.0,1000.0,101.0,244.0,17.0,16.0,14.0,13.0,18.0,16.0,12.0,16.0,-0.2767636537020875,-0.37124710761171514,-0.277897235590005,-0.34209414188233117,-0.19395570133014817,-0.1887658994601471,-0.17807444682651205,-0.26162156270458015,-0.40600775657922317,-0.2285254243954157,-0.2726929679140035,-0.14461842005540396,-0.2855484652275162,-0.2782590577809191,-0.15675515085284444,-0.36148135290008465,-0.2783262408653357,0.033231930543303555,-0.04763063492259954,0.04387603113202008,-0.5795204423242034,-0.20327963140951644,-0.21768258907094581,-0.15959218157785923,-0.22676038038161758,-0.2611327267684039,-0.27130080342145035,-0.2367720134480661,-0.4834410458357176,-0.23237337184817738,-0.45314439344384044,-0.29114289452014414,1
12.225,2.6,1.9,2.875,11.875,10.85,1.75,4.2,755.0,150.0,120.0,196.0,711.0,659.0,97.0,257.0,19.0,10.0,10.0,18.0,20.0,14.0,15.0,17.0,-0.47324870277305897,-0.3655137402702964,-0.36188698490614435,-0.3269690441150982,-0.3443197089250737,-0.22221563301109368,-0.32287116020581136,-0.448451224358565,-0.18748914032595357,0.16942969493016485,-0.2960840429460481,-0.11828197975230703,-0.4268882002866728,-0.006325308504741199,0.2004173951995882,-0.09091100397421353,-0.15182127005983295,-0.051072315139614945,-0.15088503282439414,-0.05717144394778995,-0.2265869555594129,-0.003285488813038341,-0.23945928055374072,-0.14594740463917052,-0.31046614490856284,-0.5466432348236813,-0.20502314369711225,-0.41161116259175606,-0.34173834474584824,-0.23581791118662726,-0.38743015904721023,-0.2417766117032343,1
9.25,2.225,1.575,2.875,15.475,12.35,1.675,4.125,569.0,112.0,83.0,185.0,852.0,617.0,96.0,239.0,16.0,8.0,8.0,13.0,15.0,12.0,15.0,15.0,-0.13390998170687862,-0.2656123603625437,-0.13594785482093738,-0.21951621018861112,0.06329616450273881,-0.08626702438692103,-0.3081066449312834,-0.07758610285624094,-0.00579985644081342,0.11452802743014989,-0.30211486708020263,-0.27335134188572274,-0.3552576087466787,-0.17791244082212027,-0.009116701168713789,-0.35223805380290474,-0.022540407129919258,-0.10158784113569391,-0.06593494743339161,-0.10422042542564341,0.15897910740331472,0.05050219748795668,-0.19917898931946243,-0.26448818671528695,-0.2697042939288587,0.11896078356418596,-0.284764663134355,-0.23502280209440096,0.08493411664523028,-0.3512756401361532,-0.056205963528972024,-0.21611004703309075,1
9.925,2.7,2.05,3.475,14.625,13.2,1.55,4.325,611.0,146.0,130.0,227.0,751.0,723.0,97.0,242.0,17.0,13.0,14.0,14.0,18.0,17.0,14.0,16.0,-0.16545200936426985,-0.2947495262808717,-0.14743169992737515,-0.2852951536896684,-0.08534574864282751,-0.009399996246568714,-0.2758924232121339,-0.15794013594181847,-0.14204952416349012,-0.1957669420367525,0.0761854422574009,-0.5460029438307008,-0.426278320851742,-0.6002899227233232,-0.22077175032875535,-0.609967658471185,-0.058508038660776814,-0.12247029218826601,-0.0645213363963774,-0.24431676428594812,-0.013227172006048449,0.04196234216448303,-0.03970767459946727,-0.5368161255433846,-0.5197727233930884,-0.0662603192924141,-0.4246707419616605,-0.4918852791541494,0.02533078241006998,-0.3105539203671252,-0.05556067829523386,-0.4759835983317406,1
9.0,2.1,2.025,2.35,14.9,11.75,1.65,2.875,596.0,107.0,121.0,139.0,1062.0,755.0,97.0,151.0,22.0,10.0,14.0,16.0,23.0,19.0,8.0,12.0,-0.3156020129066502,-0.10850852331481235,-0.07397514961328513,-0.3406641616536425,-0.09179716426891765,-0.07455409876546353,-0.275384082947143,-0.06386594177148561,-0.2328049654414853,-0.23948769532321942,-0.04301448153447488,-0.2306310363483073,-0.230103527560451,-0.3904487343766917,-0.1727794623491924,-0.1738244329599246,-0.7746791132721401,-0.6476267556614912,-0.5679807018097566,-0.5691511630411927,-0.4171470383980713,-0.31881390070004817,-0.17239358633111743,-0.44030153954016055,-0.17859704662627293,-0.08785730411023875,-0.2960585422803512,-0.1653405371316749,-0.21698696712082058,-0.18470743076716725,-0.22267610637440918,-0.15440324528106575,1
10.6,1.825,1.85,2.6,14.475,16.125,1.975,4.0,630.0,110.0,98.0,165.0,930.0,949.0,116.0,231.0,18.0,15.0,14.0,18.0,16.0,18.0,15.0,11.0,-0.36763953268429284,-0.4063370648575211,-0.31579626978750713,-0.37863737716246054,-0.3203999566612549,-0.38316055381247294,-0.41713023186277165,-0.2820530708471801,-0.30500877191051945,-0.19444573001835305,-0.20905664295680326,-0.22928047955889583,-0.39884274223253946,-0.13591490039497617,-0.06083712983203269,-0.1054615541797147,-0.4289808703657121,-0.36133091319838645,-0.28449800335871284,-0.15932049900230344,-0.34653708168496794,-0.40126240504673455,-0.17880092348780444,-0.369401363583091,-0.28281265792969584,0.00940523096330572,0.013022985517462525,-0.14880677804847633,-0.34707658362998633,-0.27805206665351534,-0.2976579164145211,-0.23896776510489098,1
10.775,2.25,1.625,2.9,13.325,13.8,2.2,4.45,694.0,129.0,93.0,195.0,820.0,821.0,147.0,264.0,15.0,10.0,15.0,17.0,19.0,19.0,18.0,14.0,-0.6015475811922697,-0.5006245638674268,-0.24456135380218424,-0.13102999106949048,-0.23502059418321855,-0.5944038490526068,-0.15436777161810594,-0.24236726350584561,-0.34734674996976483,0.128086258204694,0.0003983128878814313,-0.33044178348549064,-0.42790019024882053,-0.07882047953884769,-0.23984105392790758,-0.1859610339734273,-0.33877969131755103,-0.4733797163618821,-0.061991014847750395,-0.08211279189793376,-0.36353077493373886,-0.3481629440519888,-0.11808524626948112,-0.2087068505455109,-0.45573181154684783,-0.10454513753076992,-0.06921113537030874,-0.17605140069540676,-0.30644765829154486,-0.40288537920845785,-0.13719009166595542,-0.1489115468341514,1
9.2,2.25,1.525,2.4,13.225,12.975,1.9,3.775,566.0,129.0,84.0,145.0,865.0,773.0,100.0,245.0,18.0,16.0,9.0,17.0,21.0,13.0,11.0,13.0,-0.6206495429113222,-0.49125338744852703,-0.5401984837105113,-0.25336354618842505,-0.009278311928463732,-0.4271000536885192,0.08370375344706393,-0.39391898651061324,-0.21828428770760633,-0.01917274899183807,-0.07527887906540796,-0.3899311980644932,-0.2374753044060387,0.15709479066226112,-0.1356403039611433,-0.246108730761402,-0.63791836877823,-0.427674800905861,-0.35639051888008855,-0.12487403421263786,-0.2905265032463088,-0.2954141548661953,-0.4516914572930604,-0.32073039905443473,-0.1414479783359161,-0.06805071935163032,0.18091918983847696,-0.15769544484208572,-0.1930916415404403,-0.2636025548584634,-0.0045888015216121675,-0.317319003969665,1
10.05,2.05,1.925,2.6,15.175,14.75,1.975,3.925,618.0,103.0,107.0,137.0,1083.0,1017.0,107.0,227.0,15.0,8.0,12.0,10.0,20.0,20.0,13.0,14.0,-0.5045073366779493,-0.5466796389178491,-0.485179341931247,-0.5192093318382052,-0.2177913269938318,-0.45637762365965684,-0.07602700603444024,-0.29751552558479905,-0.3652393390899962,-0.3151620122066448,-0.26420664941776734,-0.5116975650699845,-0.1442043643817575,0.03462420379938995,-0.07722141755096319,-0.035280602383771405,-0.49676621145176725,0.060893467469782074,-0.18160008128976532,-0.34149636787218784,-0.5111159076334344,-0.2643564188102465,-0.44622428586662194,-0.6644745297877835,-0.004593813931889683,-0.19117952857822346,-0.06711597231576427,-0.12231092131763548,-0.2518183785274227,-0.09385060651429286,-0.053556984581720826,-0.2930071022530466,1
9.625,1.7,2.175,2.175,13.35,15.55,1.95,3.6,603.0,93.0,105.0,123.0,839.0,962.0,108.0,191.0,17.0,11.0,11.0,19.0,17.0,17.0,13.0,13.0,-0.39094603385870824,-0.13266713261009244,-0.32508450231746777,-0.12127148052485202,-0.22182367032865466,-0.07666051263601896,-0.14481185274394448,-0.18365912633523024,-0.25738879258598524,-0.3619440634617037,-0.4382487671520716,-0.30367233398979177,-0.2799908221512581,-0.26990475136114955,-0.3530138279529499,-0.21516736306912337,-0.43455385811858954,-0.3431692983812372,-0.5800239822580439,-0.3296270849331394,-0.4768073817638837,-0.3449721828602587,-0.5299453872694734,-0.24527563080796355,-0.07777234716017474,-0.2685939440030445,0.13517038664171832,-0.22859620630838076,-0.10925147200766207,-0.14509286278411035,-0.0985163488592439,-0.3288038574179966,1
9.45,2.3,1.925,2.325,16.8,15.2,2.075,3.575,554.0,110.0,84.0,122.0,997.0,847.0,110.0,209.0,18.0,13.0,11.0,11.0,16.0,12.0,10.0,19.0,-0.3989258304548152,-0.5083113785109574,-0.44023594848653,-0.32670549947145794,-0.11522095414945897,-0.12002530556442235,-0.20226528161004326,-0.3942502118678144,0.06944954235853307,-0.26131605596022095,-0.39298976430193033,0.07033181634873409,-0.1341110592085773,-0.4918325304714707,-0.24488187491217203,-0.33398176605441693,-0.49692677513977845,-0.6082984320144129,-0.4496304703174965,-0.1763225528745811,-0.2142956819298518,-0.5884745669361838,-0.1197344504374351,-0.4843556778683497,-0.20860929052413413,-0.2302939602430057,0.032507320559678164,-0.2550901497126854,-0.3917258332989986,-0.28986157537191554,-0.3988726061948043,-0.36409702651043047,1
12.1,2.225,1.775,2.35,15.175,12.25,1.775,3.375,794.0,124.0,80.0,113.0,1028.0,737.0,121.0,203.0,18.0,10.0,10.0,10.0,20.0,20.0,16.0,17.0,-0.654174521986993,-0.5178575299153328,-0.3016721955730817,-0.05432560156396966,-0.5075990945545594,-0.29821985531721107,-0.18496314962926175,-0.31595719959872853,0.09870800557851786,-0.10656939800579526,-0.45822041123981777,0.16736262662639376,0.13308347719469704,-0.43233038363596793,-0.02680815596585297,-0.1465702640437259,-0.5914572672913934,-0.3154335306383622,-0.3969873444571887,-0.2137462747522087,-0.1711808890972873,-0.19424957428488468,-0.11778483995609182,-0.0451495765792702,-0.520907985468994,-0.20562866393117352,-0.4326768854583165,-0.19193723457113002,-0.5147144219457493,-0.4402370171875548,-0.3461961773991167,-0.09766094342277551,1
10.675,2.125,2.075,2.7,15.4,13.55,2.175,3.95,728.0,123.0,104.0,143.0,870.0,860.0,126.0,257.0,18.0,12.0,14.0,12.0,14.0,20.0,14.0,21.0,-0.539534907808636,-0.3372534478710595,0.05892895163199478,-0.26453595329240903,-0.4594272180785606,-0.12910466678913673,-0.15057861803747655,-0.23776162241850002,-0.16972347842016466,-0.1310804879515474,-0.3367478327610477,-0.2417121027437944,-0.30167508443195357,-0.1520839231881295,-0.18349624896159092,-0.334185198879367,-0.3466631937316865,-0.4815077184682214,-0.1865218308539495,-0.18357169864764084,-0.35321260827504425,-0.45011478668814103,-0.44632308044968433,-0.2913421784125749,-0.3773439637310329,-0.04753836680698919,-0.2070442623153895,-0.4044631412237581,-0.34014342406958925,-0.1878870878262596,-0.04052202330562423,-0.32395458908601565,1
10.025,1.95,1.675,2.4,15.05,11.85,1.7,4.05,598.0,109.0,91.0,134.0,902.0,705.0,103.0,259.0,16.0,15.0,11.0,15.0,18.0,16.0,16.0,18.0,-0.35989559334360965,-0.20617719024680797,-0.38213365436041663,-0.30298840746412725,-0.19760077828294387,-0.2545707135011319,-0.3031139819145098,-0.4298933612349125,-0.3007427110990121,-0.23527125205540214,-0.36756720777144797,-0.3197279563128671,-0.23267171972682174,-0.1974896463703083,-0.39566617046372443,-0.09660970833206196,-0.3816158550639469,-0.29660334788860365,-0.32672424688577667,-0.030940147360980257,-0.42597099134470834,-0.5802424034007454,-0.41724020076357615,-0.3784220099715484,-0.17245175921929373,-0.012467333054724939,-0.2230751178991985,-0.10360272309716083,-0.41283583908883925,-0.41837275893195863,-0.26735235976490407,-0.3142639552701455,1
9.775,1.875,1.3,2.475,11.425,12.525,2.175,4.45,532.0,112.0,70.0,132.0,794.0,748.0,152.0,258.0,16.0,15.0,11.0,17.0,17.0,19.0,14.0,14.0,-0.1305814459160105,-0.2879025872519412,-0.3476248778536952,-0.21875138022498225,-0.2213688830584713,-0.25521617095983834,-0.05941727152721029,-0.20295524981252552,0.11174532133652293,-0.26784141004165996,-0.002047824125233076,-0.16715138489892054,-0.08430339986292934,-0.21524561254629848,-0.3465144926726038,-0.12802427241750708,-0.4305200796792718,-0.021582447464513824,0.15584418194340147,-0.14766424184850394,-0.31887972260929204,-0.1863070251157183,-0.21720228245093018,-0.33957841480937356,-0.327904921160554,0.06794365097435957,-0.13265843794214247,-0.5377349311600714,-0.31834375101521906,-0.3404352403689799,-0.2386357000851768,-0.11908846851680427,1
11.375,2.075,1.925,2.85,13.275,13.825,1.85,4.075,663.0,142.0,121.0,149.0,903.0,851.0,118.0,254.0,17.0,16.0,18.0,14.0,17.0,15.0,16.0,19.0,-0.37725186759174556,-0.23055566912179973,-0.3724480529988043,-0.2614365399555021,-0.32300141278042505,-0.13346060795563375,-0.1838810535637283,-0.33720041005699647,-0.23582243700562816,-0.5066449383064823,-0.039723405541581915,-0.48248477320483096,-0.2608733998478934,-0.2602472320999216,-0.4715206914330097,-0.44137537836554225,-0.6126279341140296,-0.5048233478293641,-0.19641051652908778,-0.22919113285336368,-0.42351131471783376,-0.32438155310410133,-0.40596802642178886,-0.5445437508768973,-0.480142972740844,-0.3963504844524094,-0.11532445093625215,-0.19127485574324274,-0.31088319842238704,-0.33143294643615895,-0.2916284118685253,-0.25354164461109896,1
8.775,2.175,1.875,2.575,15.775,14.0,1.525,3.25,578.0,119.0,91.0,137.0,1033.0,834.0,88.0,217.0,19.0,10.0,8.0,12.0,15.0,14.0,12.0,16.0,-0.38411040223254517,-0.24493284195537654,-0.46050764644682624,-0.49452861448399166,-0.03655948727087693,-0.29894163312169275,-0.28594896514098334,-0.24390066696864818,0.007399632243666662,-0.16136016669006661,-0.03532582246368092,-0.11404804257132471,-0.09712136166895416,-0.408676938338867,-0.1589678148166089,-0.32327792709990766,-0.6108307686390856,-0.21472998720459685,-0.38542144640936954,-0.3682813933067058,-0.18641499624802846,-0.2880342317908909,-0.22397053887735796,-0.30993881762831277,-0.3132641934820786,-0.11250211001047788,-0.2420438946003327,0.019558433859194507,-0.4972400980650703,-0.29159047363594776,-0.27892306431737207,-0.24856639230060262,1
9.65,2.7,2.275,2.825,16.35,14.25,1.75,3.15,594.0,140.0,127.0,145.0,1057.0,777.0,96.0,198.0,18.0,8.0,12.0,12.0,20.0,13.0,13.0,13.0,-0.38937605773598405,-0.23726135554540825,-0.3399565879113443,-0.4633261272035479,0.11190592607054557,-0.09876944125579415,-0.17983789444419787,-0.33508480208423774,-0.1383494854150051,-0.08891726004697313,-0.35746706153742747,-0.21636657300536113,-0.11545165793333118,-0.12101629978804744,-0.24997913237070143,-0.31579350140750984,-0.5149249476159755,-0.3229637201535039,-0.2970928530033422,-0.2344659115740015,0.06728063819315339,-0.25998880167659416,-0.03820148890686436,-0.26966520869129645,-0.2742308005330787,-0.1595048047560184,-0.2522885865355032,-0.07245912303605931,-0.47106427941882417,-0.35262005574452476,-0.36060192055612095,-0.33329762669815255,1
9.925,2.15,1.6,1.625,16.525,12.475,1.375,3.2,644.0,109.0,90.0,97.0,1009.0,874.0,81.0,166.0,18.0,16.0,9.0,16.0,16.0,18.0,15.0,9.0,-0.3230396263524101,-0.3366541338154458,-0.2146755016225541,-0.43545352553471556,-0.07209847255028524,-0.5103794157289221,-0.12065468601366201,-0.3126159050131193,-0.10030598364656623,-0.2291437595998205,-0.3335377400804273,-0.0684258790412616,-0.31148251685875084,-0.15471549609832375,-0.26232125316205035,-0.20311158450914069,-0.42343606109970316,-0.28697370076383966,-0.07938992348456261,-0.014664252164959124,-0.6338373397814704,-0.5333745990196987,-0.44462501921548586,-0.18806323990989823,-0.11101273923397091,0.09555740486894095,-0.05864776183054583,-0.29074356404373564,-0.10169200658874986,0.015886157342789406,-0.21349521477306552,-0.29840823018533824,1
9.25,1.875,1.65,2.0,17.05,12.725,2.0,3.65,571.0,102.0,84.0,122.0,1009.0,729.0,107.0,240.0,15.0,16.0,13.0,20.0,18.0,12.0,12.0,13.0,-0.3692557443737238,-0.25978083413756914,-0.32493745830211207,-0.4876318744035804,-0.2526320848337609,-0.05159696904823794,-0.10160314624679152,-0.23900496045846492,0.12153483298037397,-0.2446072802388223,-0.2822775304536981,-0.08495119751622235,-0.3334652703792319,-0.21862641929209634,-0.3811473547683092,-0.21500006043405986,-0.29098211375316463,-0.1992920470425152,-0.40139381084019343,-0.08783350575134655,-0.2732731198781007,-0.2945296647417082,-0.433652809556451,-0.46990969609611216,-0.13285384021620442,0.029201923596576657,-0.08734052723978482,-0.3295992808989021,-0.443289181421065,-0.14328329955359045,-0.3261413122003096,-0.3797160655379862,1
10.575,2.85,2.05,2.525,12.7,14.375,1.9,4.15,654.0,132.0,93.0,147.0,731.0,715.0,105.0,256.0,19.0,9.0,9.0,16.0,15.0,11.0,10.0,14.0,-0.33717864146413623,-0.39026583333959897,-0.2083561301051504,-0.34576672427822897,0.07627990747463828,-0.410257378779385,-0.051742015627517145,-0.28999958631132117,0.02997016922228626,-0.21499231645514347,-0.20037127571895555,-0.20747829014299068,-0.31944146813645596,-0.26125019758907664,-0.24738601607654304,-0.4661786919455571,-0.24673608539378641,-0.14653054432468174,-0.2926872733129924,-0.14759105795773328,0.017594242052295882,-0.33632086285912427,-0.08563244532986268,-0.4063791570738431,-0.2833265713701412,-0.1834836173839924,-0.3024781085005652,-0.2637725498994694,-0.41176975462850873,-0.44021997044630845,-0.3390791084952571,-0.2684662585073822,1
9.925,3.15,2.275,2.75,17.85,17.7,2.05,4.525,527.0,179.0,122.0,155.0,1156.0,1110.0,103.0,275.0,12.0,17.0,11.0,18.0,16.0,20.0,10.0,14.0,-0.009036078518523909,-0.30322691696799525,-0.3395348883415189,-0.16429907845600114,-0.3031816563813532,-0.2930000761019739,-0.1360863877611029,-0.24142074566988125,-0.17065435116909422,-0.3555113572662813,-0.2902146467160377,-0.005845734873243329,-0.33991517345636385,-0.44147041416865124,-0.34140955406603335,-0.17514669488841403,-0.978704647551364,-1.0171363236938344,-0.6812608097327154,-0.20749041042461122,-0.7442286150739188,-0.860395058941461,-0.6282327230926829,-0.4247872545671191,-0.028040624616582806,0.08550382641483224,-0.21043949999236844,-0.13213731722679042,-0.3673166113767579,-0.18544056963934805,-0.17758418554423816,-0.14376267652161612,1
9.55,1.8,2.05,2.5,19.275,17.75,1.725,3.725,459.0,95.0,123.0,160.0,1344.0,1179.0,89.0,231.0,15.0,9.0,12.0,15.0,21.0,19.0,7.0,17.0,0.18902538508102837,-0.4040878004025344,0.04721308503048051,-0.4608482915240348,0.09425872774262692,-0.012229579419943779,-0.03488447458616327,-0.30672668680679427,-0.39924989508181996,-0.36225519103121745,-0.46177943694964063,-0.2303010573724982,-0.7722787527109095,-0.6999717721609867,-0.6095770213494874,-0.3609586141545793,-0.7742688554468479,-0.6449263636302371,-0.4590731602859063,-0.1888717212991939,-0.454371170198854,-0.43667485873879003,-0.4263276246160877,-0.32727908280319584,0.03497532211646663,-0.28017055447252254,-0.13648285685044953,0.026070559183517413,-0.33913970850263986,-0.16027502730673196,-0.23863226921025982,-0.20159255444921306,1
8.95,2.525,1.925,2.525,17.2,15.75,1.475,3.275,502.0,120.0,121.0,164.0,1121.0,917.0,84.0,210.0,14.0,10.0,11.0,15.0,16.0,15.0,12.0,18.0,0.09899637495072783,-0.3240789006078376,0.08682646902354973,-0.22341511501901407,0.1214936700073232,-0.14964537652076154,-0.0007820360625557805,-0.25188078075055775,-0.3819732738321164,-0.15299204397009444,-0.18798711006676563,-0.3088108320390927,-0.2950555594504534,-0.08192736460847701,-0.05995755717935202,-0.2792638396350841,-0.43836574149592394,-0.4236372105381486,-0.2651278232169899,-0.35307252097159897,-0.23911519502587186,-0.11818972628011641,-0.22299624926926012,-0.26269081262400856,-0.4063559035017733,-0.28005298593083355,-0.10400693347802244,0.049976705355997554,-0.455732416381323,-0.21833361376963092,0.03034066246134222,0.005362160648126926,1
10.725,2.8,1.775,3.2,15.95,13.675,2.0,4.425,605.0,129.0,101.0,182.0,1066.0,774.0,125.0,261.0,16.0,6.0,11.0,14.0,21.0,16.0,14.0,12.0,-0.11898583172091388,-0.22202207464729848,-0.17151435043600013,-0.18440835055764762,0.18298010987150923,-0.22591348388529836,-0.16953675535597756,-0.02807525975872854,-0.11500515122006448,-0.17853872985221536,0.19389425590264658,-0.054512304510823735,0.004755373790034743,-0.2133895179607874,0.17685741719608583,-0.36956454898828256,-0.39491511291967674,-0.41703494799148355,-0.07748318392204569,-0.27790725586175746,-0.09407999952287933,-0.23183541604666555,0.014191669619541521,-0.07694710610178188,-0.2072495383225006,0.1144643299090617,-0.22478100863906422,-0.24142057177958787,-0.2651939295090063,-0.38773934745297345,-0.37348265203786585,-0.32797585726940204,1
10.9,2.225,2.05,3.075,18.475,12.0,2.225,5.525,635.0,113.0,115.0,173.0,1180.0,752.0,136.0,336.0,15.0,7.0,14.0,12.0,19.0,17.0,19.0,15.0,-0.3969103610731347,-0.5004102901801845,-0.37645923351919364,-0.38992227502754234,0.08894340042244202,-0.3478776649876164,-0.20283797010182378,0.07847403005375796,-0.08633668072109832,-0.24988307730915837,-0.1430282912776885,-0.17541496478201984,0.03251297682082622,-0.039235413041755984,0.020202673223165178,-0.3515930737628789,-0.5417849937258614,-0.37590540956312724,-0.32184045671064065,-0.3353509337337223,-0.534726310147177,-0.589195519537306,-0.4900703641364561,-0.2951104300373567,-0.3588589252736247,-0.13919178320444062,-0.07606084231761008,-0.07277725098330393,-0.3026100759691598,-0.3656167544514726,-0.25045881097979045,-0.29347664124301776,1
9.675,1.775,1.825,2.225,17.25,12.875,1.95,5.05,598.0,100.0,108.0,147.0,1180.0,829.0,107.0,316.0,17.0,15.0,10.0,10.0,18.0,18.0,11.0,15.0,-0.3309672067142001,-0.4546958464924169,-0.17298623995306048,-0.216424488425275,-0.19922872672467531,-0.24525853564959796,-0.2922788903442344,-0.2928365825834754,-0.19439470660751515,0.09818917698174516,-0.20831798004622623,-0.06158352650663343,-0.38221355607472735,-0.21426104082572373,-0.29312122195702994,-0.3724540797505493,-0.7182640551312477,-0.5223094864950395,-0.6406611177763425,-0.20951715252337444,-0.5104845049626947,-0.3845256065722349,-0.27163307252098784,-0.14892692255365086,-0.3083263884357311,-0.05786051491378464,-0.16310111673782926,-0.02536639747646056,-0.35435247807776044,-0.058273738538029994,-0.23823706959670082,-0.05470638798537924,1
6.825,2.125,2.1,3.275,17.625,14.075,1.95,4.425,398.0,86.0,103.0,207.0,1188.0,867.0,114.0,279.0,14.0,11.0,10.0,18.0,18.0,16.0,16.0,21.0,-0.2290297343109665,-0.4390449121928077,-0.22433252184531882,-0.30775215460880645,0.17809909178070743,-0.07499109317093013,-0.4094122637037551,-0.08003762548683117,-0.16919173406804663,-0.18784477848240017,-0.4214716725723701,-0.15417274551259677,-0.6002947855700688,-0.3677781407241779,-0.4695505680135031,-0.19490761025112224,-0.5749111119441044,-0.2873256208722147,-0.47052416893696153,-0.2725366425048432,-0.3870144847269276,-0.2610577284328485,-0.42702092757921645,-0.3674530824972841,-0.2938916341943267,-0.122819546891498,-0.046018310637620845,-0.16212964399305396,-0.5066111306811741,-0.10010441546290935,-0.0916002276324846,-0.2171326638233729,1
10.55,2.75,2.325,3.25,17.55,16.025,2.125,5.6,615.0,133.0,102.0,180.0,1062.0,894.0,135.0,348.0,18.0,8.0,8.0,16.0,16.0,15.0,14.0,15.0,-0.16293377665493222,-0.4132849682494628,-0.19322004835217768,-0.22916485006973747,0.1977535776305639,-0.49875565869540095,0.08221434975264003,-0.4343390446048747,0.07890317907684634,-0.19269391614695822,-0.2855713986169861,-0.23369525425421644,-0.2477862940427171,-0.3298105049222494,-0.26507952853041816,-0.17284687086493133,-0.2069956768759514,-0.38448423293879924,-0.13182172566463088,-0.1810688502354673,-0.0873284497776913,-0.22569647198527512,-0.21769365496906112,-0.25950621907016996,-0.364648817790051,-0.2582379476103411,-0.3531341882768009,-0.4261507745415855,-0.45498105902453456,-0.43458991099174354,-0.3667315909909266,-0.326960333638868,1
9.775,2.575,2.1,2.65,17.375,18.05,2.475,5.375,631.0,142.0,112.0,138.0,1207.0,1142.0,165.0,372.0,19.0,12.0,12.0,12.0,20.0,15.0,19.0,16.0,-0.4238931398896449,-0.1242498239271264,-0.17972644963619283,-0.13486554271684967,-0.2422478950182561,-0.33618133426849006,-0.05523962172162798,-0.21714863951259178,0.004759325070689258,-0.4834101098044847,-0.08005140548367816,-0.28808865324332616,0.038395098616766835,-0.32185739345380143,-0.21521379762086051,0.03972559826724825,-0.6418329016709031,-0.26204583665743025,0.10735704255074234,-0.10319662311691263,-0.48521090805753864,-0.4388749002617722,-0.42219839566048784,-0.3314129771182612,-0.48904094486180233,-0.2064919914291878,-0.21730786255350834,-0.3001690173804724,-0.5974051099698068,-0.4085525906591119,-0.40595430546553257,-0.37629876385836136,1
11.5,2.35,2.05,2.275,11.975,14.05,2.15,4.325,710.0,134.0,103.0,136.0,793.0,822.0,137.0,265.0,14.0,16.0,10.0,13.0,21.0,17.0,20.0,17.0,-0.3408590892431295,-0.1221638085826327,-0.2576933685508405,-0.3304002169056152,-0.15912258581514616,-0.3304198919808185,-0.12999044884233657,-0.08652028257197987,-0.2112304494354059,-0.44880301607477996,-0.353393912082699,-0.48963897103900983,-0.37881100892271147,-0.5200404084920847,-0.47738078376728915,-0.44827919577402375,-0.7026616893272041,-0.8682452294546203,-0.44637314282606977,-0.4849096527113169,-0.47943221838027206,-0.5532041765450977,-0.47389402298654787,-0.2904106001877414,-0.4082141154541511,-0.2684576915362839,-0.2228450394428445,-0.4628817070648846,-0.23422401163958037,-0.2635212652909782,-0.11026957863535052,-0.4369607823589861,1
11.125,2.05,1.6,2.3,12.825,11.325,2.075,3.3,700.0,113.0,86.0,135.0,814.0,658.0,119.0,184.0,17.0,11.0,11.0,15.0,16.0,16.0,13.0,15.0,-0.5504607545769519,-0.35731035259220806,-0.4419607891795,-0.24952432341936723,-0.13394023188177506,-0.4040136751181959,-0.031041589354398134,-0.1436947407374071,0.015564397487811318,-0.4509739754377902,0.18199263028716664,-0.08670272799757932,-0.34231880284080624,-0.4331667464826437,-0.2836432202009881,-0.39117077699244657,-0.4336397468955847,-0.6442212422982209,-0.2321686666117472,-0.33647016630816323,-0.4952484820082202,-0.5413573934810386,-0.13407030140691328,0.06397097503261769,-0.13631838869371485,-0.17392334120451647,-0.4953975026042104,0.03989418706587623,-0.2167197959642895,-0.37101010863427464,-0.33161511200674576,-0.2121585150849323,1
8.025,2.2,1.975,2.9,15.875,12.8,1.8,3.3,448.0,110.0,119.0,196.0,971.0,726.0,112.0,188.0,17.0,11.0,14.0,17.0,19.0,17.0,15.0,13.0,-0.34520930593786675,-0.42070554833491924,-0.3125619174055972,-0.4388949520411362,-0.10039962427298614,-0.5125472459959812,-0.13405913147611256,-0.25215280227553744,-0.48459480225624335,-0.4592280260170047,-0.6023672200641782,-0.1036673760032628,-0.3084859330114219,-0.05422055669072193,-0.35113655673251204,0.01603526695129568,-0.58667663400825,-0.4603867224662523,-0.14366486415892846,0.13968720473897872,-0.5229467589382875,-0.749591920807973,-0.3831340789824866,-0.28392510614996114,-0.1869593382958566,0.09436304966060308,0.07097872631706767,-0.004482376197378065,-0.1962395151778188,-0.29971750142513565,-0.4467336375885283,-0.21626102121533436,1
8.375,1.825,1.375,2.925,17.175,12.2,2.0,3.4,488.0,86.0,91.0,197.0,1204.0,793.0,132.0,213.0,16.0,13.0,8.0,18.0,22.0,16.0,15.0,13.0,-0.23331861289180092,-0.37957519324130745,-0.3944877978747483,-0.0387895932101646,0.03529726702379376,-0.6859557702940763,-0.08721780230090677,-0.26014394419075065,-0.5209293323663874,-0.32054673707038245,-0.2399300039224946,-0.21151060767638566,-0.5452315891325418,-0.48882109004320073,-0.3325353937377031,-0.33357269649890475,-0.6794391591819712,-0.4286225883569551,-0.21616213730212885,0.10037553274431814,-0.6242604178268746,-0.7029279387679024,-0.28762391916983104,-0.295310031646435,-0.3190018592624133,-0.27501545474261374,0.19355454372974168,-0.25405189776829173,-0.3832817705722504,-0.2727458855000823,-0.43014934293768514,-0.26935608482956885,1
10.625,2.35,1.55,2.925,17.925,13.025,2.175,2.825,684.0,139.0,90.0,196.0,1150.0,750.0,121.0,174.0,18.0,15.0,9.0,16.0,18.0,16.0,16.0,16.0,-0.30968283295301235,-0.2533440681865151,-0.29561751931338,-0.3099438434224872,-0.12956068651045122,-0.48661071561233127,-0.2646061470006069,-0.42601641586867195,-0.39412000697187516,-0.4178848398782962,-0.47420793068813794,-0.3421478093063106,-0.927258728583473,-0.8294862890042115,-0.8570080590018497,-0.6229088964687607,-0.5309975104806629,-0.3260975941028401,-0.2142516264699826,-0.008393762903268856,-0.09669629228944876,-0.4650727598821479,-0.12168551955936545,-0.20148567594627145,-0.2729833483877267,-0.004856246123647119,-0.26665329984385716,-0.35162440436295056,-0.18056425304288964,-0.03010795908074362,-0.16158232641959602,-0.417042319787603,1
11.425,2.125,1.85,2.9,14.65,13.9,2.1,3.75,773.0,134.0,106.0,176.0,967.0,845.0,117.0,249.0,19.0,14.0,10.0,13.0,19.0,17.0,13.0,17.0,-0.6028808073282741,-0.3575588732011866,-0.26529696581879303,-0.3727145272016946,-0.3528098750248422,-0.08574025427834302,-0.3267218129185232,-0.40249330558303403,-0.22829415111122253,0.04228596317966245,-0.4044648845991711,-0.36465821015252736,-0.5307717726462974,-0.254088965929567,-0.40216530182083693,-0.44321390735284194,-0.5688073663784234,-0.5486779029337172,-0.09219579138211387,-0.14115433896426488,-0.5556444368149921,-0.715498549897072,-0.5049958363928102,-0.5163112329755806,-0.3684813125699158,-0.32092653221938994,-0.1983325319306848,-0.19493630128795922,-0.4502744110378031,-0.21895961570916062,-0.15750658495618652,-0.2485237134219821,1
12.375,2.95,2.125,2.525,16.1,16.65,1.95,4.65,821.0,164.0,96.0,148.0,1076.0,1016.0,114.0,313.0,17.0,15.0,11.0,15.0,17.0,19.0,15.0,17.0,-0.6063581415628333,-0.4512393178691947,-0.45313704094853363,-0.3778376466271336,-0.3041104636449189,-0.2563132183974318,-0.4256572100101992,-0.33949461345595694,-0.40673317937334397,-0.17922128783943872,-0.6217450297651154,-0.5435190684679176,-0.3451022400612058,-0.2088374338233255,-0.2766316471568174,-0.18255350776808202,-0.5162325676187043,-0.5515715478789986,-0.2629443672018085,-0.3956162807186225,-0.4069283316849342,-0.3549388454096468,-0.4846557803225765,-0.3372659407874702,-0.486226887700825,-0.6277285036261866,-0.2463348672826137,-0.18693718234458476,-0.5399066448822963,-0.45115887212151384,-0.47268893388929145,-0.36980065174287463,1
12.775,2.875,2.525,3.575,16.825,16.55,1.925,4.3,820.0,134.0,143.0,238.0,990.0,962.0,116.0,247.0,17.0,10.0,17.0,15.0,18.0,18.0,16.0,12.0,-0.36978976534441804,-0.3357843719560562,-0.2930472932206142,-0.3966035676083901,-0.05025738824444398,-0.5722804520894071,-0.18104787251612323,-0.450561349391247,-0.490648359301767,-0.34087863165554855,-0.33704146523758216,-0.4132470180976567,-0.48982970713749463,-0.16839801714386834,-0.13870016095217366,-0.3155785225459954,-0.4118286881219033,-0.4882165349564877,-0.26626263263899724,-0.4214059599078003,-0.4542021146013255,-0.5413930383924261,-0.2479322704062192,-0.26824817059326755,-0.4796372446798855,-0.6524321530238825,-0.3846354287455274,-0.38876087664277714,-0.3333512026722401,-0.2335300377970008,-0.2866293344476204,-0.38433902746971016,1
11.125,2.875,2.45,3.925,15.075,15.95,1.625,3.375,579.0,153.0,153.0,251.0,1005.0,917.0,92.0,200.0,12.0,12.0,14.0,18.0,18.0,19.0,13.0,13.0,-0.13231486273628215,-0.37743366114493315,-0.3290734561365629,-0.3362056193042211,-0.13449054956687387,-0.37753672999136756,-0.14715539988134288,-0.5582172491665819,-0.531108911818742,-0.5583035291761347,-0.149028167336598,-0.27069667030748623,-0.5250527583524814,-0.34535441388445404,-0.22765306199122448,-0.27091448399753426,-0.3638436448567621,-0.44865560927490006,-0.0681474861872784,-0.31063861459922926,-0.5477393826058727,-0.7370259523294614,-0.3098765853163031,-0.48174116140836093,-0.02611957480255947,-0.2183184671716729,0.20319562963475774,-0.5240730721205463,-0.35308195604058157,-0.21558061552091767,-0.11251819591955642,-0.48790130748752647,1
6.65,1.8,1.55,2.5,12.75,10.925,1.925,2.775,362.0,93.0,101.0,146.0,764.0,651.0,104.0,155.0,15.0,11.0,12.0,18.0,13.0,16.0,16.0,14.0,-0.1407848346393518,-0.21103972344691554,-0.35157634891687134,-0.15647631574280865,-0.08223348109475649,0.052841127461556725,0.10337567091049893,-0.0990081948056081,-0.1329426083982047,-0.2611165642392876,0.3656579700668384,-0.10419282191096457,-0.18831243547973278,-0.20288947223915643,0.04573829032473509,-0.15384534249444157,-0.2264463288723873,-0.28345694478606975,0.01617596036974267,-0.01516758234213721,-0.4246266609898149,-0.4037857661317878,-0.33882487920665916,-0.08288491751274141,-0.0399348349940328,-0.0072231834764211605,0.14595041264251363,-0.19643359492241316,-0.03749714435266604,-0.17871493709925046,-0.17445106603849386,-0.34407290138993957,1
8.45,2.4,1.475,2.075,11.875,10.475,1.825,3.575,543.0,134.0,83.0,131.0,711.0,714.0,104.0,246.0,16.0,11.0,12.0,12.0,15.0,17.0,14.0,20.0,-0.3528863866543855,-0.3432654495481142,-0.3373079643235969,-0.5871416045942418,-0.1360086086719478,-0.1487674459314891,-0.26845577212047944,-0.3746269933617085,-0.2928859741826092,-0.3331024612623397,-0.3778926094419083,-0.10030982364070203,-0.2873527110869656,-0.029747711969973698,-0.2577058632480145,0.03248252886666483,-0.29754455571680516,-0.2368216814645154,-0.327068353053549,-0.4063788570880825,-0.430993457465133,-0.047056537856637465,-0.3620180155585025,-0.4038985676278497,-0.1959423700984331,0.06583810121764755,-0.04808137797548383,-0.1757919976070931,-0.35920531770800246,-0.2020288605296263,0.0386139332731271,-0.3703715649483429,1
10.85,2.575,1.75,2.5,13.95,13.0,1.45,3.925,683.0,143.0,99.0,144.0,901.0,794.0,74.0,260.0,15.0,11.0,13.0,13.0,19.0,15.0,6.0,20.0,-0.29684173846249023,-0.4547815428522014,-0.16705677640545022,-0.2677156071389673,-0.005870745777058921,-0.19926117607662458,0.047467602739679614,-0.3425585763030655,-0.19937007996742154,-0.14816316189502776,0.02198945808984112,-0.038071817539045066,-0.3036660333833224,-0.4329597253310965,-0.18265514020883275,-0.27406632456275387,-0.40884273937859766,-0.43959554264640727,-0.11094074423609394,-0.16062056564404675,-0.3475935855606945,-0.1210200804739071,-0.3415050989122111,-0.22567797120058855,-0.004723894092782978,-0.22454069389968126,-0.15750868137065363,-0.3127638100451477,-0.4934118483844907,-0.04508065830302215,0.027098324069512368,-0.08513069518143929,1
13.275,2.325,1.525,2.725,13.35,11.8,1.75,4.5,743.0,141.0,93.0,180.0,796.0,632.0,94.0,285.0,15.0,16.0,15.0,19.0,15.0,13.0,14.0,14.0,-0.15762860155509006,-0.24012568274737098,-0.17900468062689145,-0.055550765696481055,-0.2328477991899976,-0.1896249673880867,-0.20023441733910496,-0.33192480860942825,-0.4230220246396917,-0.09555145437633927,0.03685553654055564,-0.07298339606871096,-0.5814091063081663,-0.3276936167209473,-0.09060221507167335,-0.14949395818265182,-0.44208181978381406,-0.4759477596858582,-0.05463483814004834,-0.13459563787665088,-0.3438413412419562,-0.4663148854447327,-0.35882559946687614,-0.12362645765289815,-0.029257138466202162,-0.009917248662733661,0.043661841912535096,-0.516188631668459,-0.32445678841059444,-0.41313631723397454,-0.19710735596383805,-0.08961601978087097,1
10.9,3.0,1.85,2.775,12.9,13.475,1.8,3.425,605.0,155.0,106.0,154.0,869.0,667.0,97.0,168.0,14.0,12.0,9.0,9.0,21.0,11.0,8.0,9.0,0.003974542848863015,-0.4278780080271436,-0.2340763818739825,-0.1282258846735172,-0.018395413460573697,-0.37738036610961223,-0.09216335968843531,-0.39243017283411347,-0.2375557907667214,-0.1351371640234701,-0.21354081100329736,-0.17608571102177095,-0.1142451872204214,-0.11776395424397536,-0.11179980788112925,-0.18428531698420084,-0.4281786801719805,-0.3886097853845368,-0.248345099119216,-0.2568176154707837,0.12295802120897298,-0.1399415132176285,-0.2261211555886019,-0.17239896512461986,-0.08708731415181134,0.09190401188878576,-0.1913724017875848,-0.2909486988347715,-0.014108922293184768,-0.5042480597517939,-0.01754591991500543,-0.23404274707958383,1
12.525,3.0,1.55,2.425,18.2,12.325,1.6,4.375,726.0,151.0,81.0,136.0,1243.0,644.0,97.0,261.0,20.0,14.0,9.0,11.0,21.0,15.0,12.0,17.0,-0.22417569271858467,-0.08038773904673807,-0.2874036576596203,-0.39726678568698964,-0.06785294181910827,-0.18414820351023342,-0.3777880795691173,-0.21166365026303938,-0.07761952377356147,-0.3755159947536013,-0.20279942079381053,-0.029787181073756386,-0.08980446701343973,-0.20800847347189894,0.01528104494814916,-0.02590909483370503,-0.5654813753226302,-0.24716493784261237,-0.2618835174063743,-0.2686174559712871,0.07934690651231183,-0.30327139434012595,-0.04354260456114431,-0.22026493600324926,-0.11116011849671192,0.03459508830463955,-0.18633126609450454,0.05965981386913752,-0.30151774796584646,-0.14513908177601925,-0.2843413295734984,-0.28745022135504533,1
13.95,2.875,1.925,2.2,17.45,14.15,1.25,4.125,887.0,166.0,104.0,137.0,1142.0,852.0,69.0,242.0,17.0,17.0,11.0,16.0,16.0,18.0,6.0,17.0,-0.5588219715539651,-0.6235398233601525,-0.4336023580317431,-0.37844382495147044,-0.2797745045207257,-0.7292155015341735,-0.3571923216495062,-0.6126701391505422,-0.12149828312161173,-0.30180870038565544,-0.3124239450638977,-0.24940172965151997,-0.5111666429135429,-0.32118648706572694,-0.3270863706178817,-0.12309360999182466,-0.48409366272074994,-0.30473363445927015,-0.2808148523922297,-0.32056882916461366,-0.40600850278894274,-0.4875448754467555,-0.37923449352722366,-0.42838396505668574,-0.20994917841610516,0.029131338236925583,0.06501378078113329,-0.053041323836895776,-0.423416459252343,-0.5047826407980989,-0.3811359241685912,-0.2541659321404657,1
10.8,2.275,1.525,1.775,13.425,12.375,1.85,4.675,705.0,149.0,89.0,102.0,815.0,746.0,99.0,311.0,16.0,17.0,13.0,12.0,18.0,14.0,13.0,19.0,-0.5496724452970283,-0.39005488532901533,-0.4088118872615657,-0.42379490033625283,-0.37120320346690966,-0.09907030617938005,-0.040420686442070045,-0.4291342021455421,-0.29228798790148575,0.020865572396228577,-0.0027338023824913993,-0.224903849587444,-0.355059274430029,-0.29311325725753895,0.16126376420854308,-0.09577886931772335,-0.25523768518173023,-0.12475129077533835,0.01878845774656718,-0.31676268630612925,-0.4393275161247763,-0.45096742928845795,-0.36496862030592664,-0.3795350151923402,0.010972281407598683,0.023333436195460328,0.14349178575799895,-0.34642124989408773,-0.715616721455419,-0.023473360840257272,-0.0025414871408114123,-0.09773761230516602,1
6.95,2.0,1.85,2.7,15.175,12.8,1.75,3.2,435.0,108.0,111.0,161.0,932.0,767.0,110.0,208.0,16.0,9.0,14.0,15.0,18.0,18.0,18.0,15.0,-0.5121177331545886,-0.4091242993728144,-0.3285055834299191,-0.35831156056891655,-0.3277936224111783,-0.40749442068652375,-0.21826898565699707,-0.4793532891760354,-0.2872473047755792,-0.2595813224095985,0.0061475570131301685,-0.3117990796756773,-0.31986239879062683,-0.3978805211595456,-0.10297765088493063,-0.36948407066466865,-0.3910552850986538,-0.12814581416921053,-0.11411867975820644,-0.1723198774165496,-0.2854082644806042,-0.420087131389969,-0.23665577754006764,-0.6046656439025343,-0.2987924584884727,0.0984892650856658,0.0030970876264127317,-0.2483823354363976,-0.5425791479634995,-0.18863993758105269,-0.4417016091494935,-0.45989499682420665,1
