0,1,2,3,4,5,6,7,8,9,10,11,12,13,14,15,16,17,18,19,20,21,22,23,24,25,26,27,28,29,30,31,32,33,34,35,36,37,38,39,40,41,42,43,44,45,46,47,48,49,50,51,52,53,54,55,Gesture
21.45,4.65,4.3,6.95,13.875,16.775,72.225,28.825,1541.0,308.0,289.0,450.0,914.0,915.0,4543.0,1859.0,19.0,18.0,19.0,18.0,18.0,18.0,22.0,20.0,-0.8438445942853107,-0.581614442697296,-0.19113647362291883,-0.2970751820694597,-0.6448325540577741,-0.1421425704376084,0.004677254082114138,-0.10528570222722557,-0.31916377324850276,-0.007175233779383687,0.09062375067852715,-0.25579916294710753,-0.2682930113498024,-0.1440473391502346,-0.03645651819320108,-0.46643178973335664,-0.5374825170994667,-0.3440873835934771,-0.2754429011932687,-0.33567370569632665,-0.2269760889941984,-0.24362178505366658,-0.3033125833817022,-0.21515419194380878,-0.4602402632198355,-0.06921318390409444,-0.0998465961499346,-0.13730636210350125,-0.6748015695837937,-0.4326054182390907,-0.30403541047844723,-0.22377188669863823,0
25.175,4.275,4.65,9.875,13.675,20.35,70.45,31.85,1732.0,270.0,311.0,681.0,946.0,1208.0,4220.0,2217.0,21.0,18.0,20.0,22.0,19.0,16.0,19.0,21.0,-0.8822575574639866,-0.649814266035659,-0.713914495040766,-0.47580085934741223,-0.7207667136158354,-0.6312841690795866,-0.525573036542015,-0.35630557065202917,-0.6430076014522316,-0.5957668123123113,-0.32050381021409585,-0.42138770682838383,-0.7510127680283041,-0.6478472823361132,-0.290347813676208,-0.2505082341927569,-0.9051817743914066,-0.6435038850282723,-0.45913135911462727,-0.3860497489517939,-0.3493971897673929,-0.4934700313224955,-0.3007464039392303,-0.2957539359915219,-0.47565184254782966,-0.27374755869190043,-0.23764758303879502,-0.1357089496567013,-0.7120436762858389,-0.34639830523188747,-0.34500964264145634,-0.24903888426265608,0
23.025,3.875,5.325,14.55,15.1,17.4,66.75,26.775,1622.0,255.0,354.0,998.0,1060.0,1192.0,4212.0,1939.0,17.0,13.0,15.0,21.0,24.0,19.0,15.0,18.0,-0.7109833344733817,-0.420243328775687,-0.3175860027979333,-0.05501960605374452,-0.504060426393621,-0.1635497036578788,0.07125909970993952,-0.06683928712185018,-0.5499701561673793,-0.2847765318620073,0.034704412782090466,-0.015536866806745629,-0.7334829986164426,-0.6093167360467043,-0.19048588099304975,-0.20703597336786395,-0.7956123725817991,-0.5577932509467687,-0.3185065483171985,-0.44825904697181446,-0.42839571749238287,-0.3155844748656863,-0.1434720868465066,-0.2587110580170689,-0.4230611712444364,-0.178697098667839,-0.11670591618385605,-0.13883847793226622,-0.6631504640166902,-0.42790533327356084,-0.360871874054471,-0.4162088069458579,0
22.275,3.65,4.15,8.75,13.175,18.75,62.45,29.925,1462.0,226.0,262.0,528.0,961.0,1179.0,3750.0,1892.0,19.0,18.0,19.0,15.0,18.0,16.0,17.0,15.0,-0.6141665387752423,-0.3698926411326023,-0.4751288774911653,-0.3283497488832894,-0.1788536517362498,-0.3421028919382312,-0.1315543142386852,-0.17216671887870702,-0.24787014148548092,-0.30131507502681026,-0.11606425946817213,-0.17623709608829066,-0.42537403613564834,-0.4082772266835748,-0.3446430034002166,-0.2501848383356859,-0.8334727225355529,-0.648968896718422,-0.6055264848691753,-0.40339420603717835,-0.4056531995481171,-0.6330939398476384,-0.39016498152396806,-0.4614161855931978,-0.45396495876605886,-0.5635450074546554,-0.33053439051855216,-0.1885849465571172,-0.4667819537505708,-0.5045530101324524,-0.3883494750560204,-0.22644535541592006,0
27.675,3.65,3.525,8.0,13.55,20.2,60.475,25.65,1828.0,221.0,212.0,491.0,884.0,1291.0,4018.0,1406.0,19.0,13.0,12.0,16.0,18.0,15.0,21.0,14.0,-0.5732249139561676,-0.3062795962818776,-0.0886762743213234,-0.1734267365801944,-0.12384515878616759,-0.13700441481059114,-0.39706060373895474,0.20333604856893486,-0.2144999211138892,-0.008367046000869181,-0.27847161287482763,0.03273638346708937,-0.3398212565913086,-0.357544649795994,-0.3676311923050962,0.09212544604891557,-0.5433843095026012,-0.4968539625342588,-0.2455831743942108,-0.014978463486293545,-0.20025046347661238,-0.30182033158870614,-0.3170404201103664,0.0758419420610897,-0.47591004445103824,-0.22827280429932187,-0.16127973203530196,-0.13576175397704388,-0.11271779256254026,-0.27656912773829845,-0.2799584597050748,0.05329634650894533,0
20.4,2.975,3.35,7.05,10.95,16.4,50.575,22.1,1321.0,177.0,202.0,484.0,718.0,1030.0,3347.0,1365.0,21.0,15.0,18.0,20.0,18.0,17.0,18.0,19.0,-0.715163235817894,-0.6302499325381284,-0.523394691819974,-0.3544622890104841,-0.2921200250099509,-0.10469128924618613,-0.26320128870984233,0.07403734636444144,-0.3770103507188152,-0.1136278420448335,-0.2681958423495417,-0.02330286556345984,-0.5139920964504019,-0.3293772181293392,-0.39889005102033276,-0.06292046484120314,-0.4629693031822919,-0.45698295660637706,-0.24650254729443294,-0.14358023639530856,-0.5124246011043916,-0.5039438683692787,-0.37332108518561075,-0.23084500233616637,-0.5247827712778361,-0.4519898681533161,-0.10052357152442523,-0.2987116021357774,-0.3812038162153707,-0.36306083647080667,-0.3542255416306669,0.050546728350122645,0
18.85,2.575,3.75,8.825,9.75,13.725,44.275,17.25,1197.0,117.0,263.0,589.0,689.0,800.0,2826.0,1096.0,17.0,12.0,13.0,18.0,23.0,13.0,20.0,19.0,-0.7160059330851485,-0.5384883443719358,-0.40176960230366066,-0.33589404662904593,0.1894139389587644,0.02553327427870245,-0.18050540040247764,-0.044353296078519275,-0.32547366078026874,-0.1159844395004359,-0.17514583087008181,-0.11942337659518094,-0.37801639478772425,-0.4150434517802583,-0.3343263831486999,-0.41579934636285404,-0.6322764071244608,-0.2760815884787454,-0.23384671477565075,-0.30484667960665435,-0.3490281247868687,-0.32125249083010504,-0.5743184775211521,-0.3015514938419064,-0.5547590483040764,-0.49566552049911106,-0.3240187226050472,-0.4100300325641814,-0.3899882620158491,-0.40717343139624246,-0.2843800462572759,-0.2619076878757972,0
16.5,2.825,3.525,7.725,6.825,13.25,51.9,21.475,936.0,177.0,213.0,474.0,385.0,728.0,3458.0,1484.0,17.0,17.0,15.0,20.0,15.0,17.0,18.0,18.0,-0.4749127472884245,-0.5542386423534785,-0.4179476673582766,-0.4597337513712933,-0.3318039304175003,-0.16008120152011668,-0.09517399192333664,-0.2066880363756298,-0.22023928564988676,-0.04765813860028558,-0.059688352654196065,-0.08690336728065334,-0.1415079004380186,-0.1643686982971977,-0.11690152359624523,-0.13687164806175933,-0.21829301867787465,-0.3318376095928999,-0.27818598860100413,-0.10076585825677369,-0.30309320032364484,-0.5141741483856866,-0.4061573225754253,-0.5764625814169018,-0.5853648088245393,-0.3529549894988467,-0.30942122995498417,-0.096818855294046,-0.6586707776174408,-0.26740984410151414,-0.09670118189007729,-0.06931386805292407,0
20.1,2.325,2.8,6.85,7.15,9.375,45.475,15.925,1444.0,140.0,165.0,433.0,408.0,580.0,2944.0,1004.0,18.0,14.0,15.0,17.0,15.0,13.0,22.0,21.0,-0.6360760577657419,-0.355491303709854,-0.36027738026646394,-0.22171215318226148,-0.10233803814011541,-0.29713904515620526,-0.01307615271627629,-0.33519671813328694,-0.28253666788446535,-0.3137502639260366,-0.2242131175355848,-0.37065795875996727,-0.5016356922765959,-0.5129397674667393,-0.3807796065730347,-0.3974615334964915,-0.4743732583253756,-0.5092313003186341,-0.4411704107517569,-0.2767168731203132,-0.3779698949565884,-0.3016172057328278,-0.3703331121335837,-0.2667487413870034,-0.5789322339163244,-0.6981787359125666,-0.43346977016786997,-0.5266234331406717,-0.21955288547523133,-0.22220761106790138,-0.020001171563638894,-0.12084161828895154,0
20.35,2.05,3.1,7.275,8.15,10.05,37.35,14.025,1340.0,124.0,181.0,475.0,560.0,531.0,2498.0,860.0,17.0,14.0,16.0,19.0,21.0,12.0,22.0,10.0,-0.5718676989514035,-0.6187432995846853,-0.3703130709986115,-0.3024505840735313,-0.26303535636318215,-0.04349335163636554,-0.15798613215847176,-0.3883722781518326,-0.3264357780354411,-0.3847705388202734,-0.2790367106183158,-0.3770215885326169,-0.4510162070782962,-0.3125601568973397,-0.284019620460873,-0.30411421124174526,-0.5523335026223546,-0.34742245874913485,-0.45569365043071286,-0.28954081665552656,-0.02560622966700443,-0.2600052800622917,-0.29633242906510215,-0.13123320776499717,-0.5960237331613977,-0.4832388335003463,-0.44344647859588693,-0.47866994808410784,-0.4569206577877471,-0.40687359431106646,-0.40438105580581135,-0.15750858463977271,0
18.7,2.325,2.85,6.725,10.325,7.575,27.025,12.0,1347.0,145.0,170.0,418.0,745.0,485.0,1888.0,789.0,25.0,19.0,12.0,17.0,21.0,18.0,18.0,16.0,-0.923104532508349,-0.2022289129869881,0.09609532523505097,0.07022921541217687,-0.33729870952014485,0.10678641597851993,0.06561362380732681,-0.15405229641711185,-0.1791834469715229,-0.15423391429191066,-0.05292745738683882,-0.2997894682589314,-0.4040649275869931,-0.19819504369706958,-0.21198188134420656,-0.24615260898483585,-0.6474172559209201,-0.6445398813814516,-0.25957366090454526,-0.3773469757791909,-0.3800910639762157,-0.31728224365292185,-0.19879495786989462,-0.3727346184134285,-0.8103708076276556,-0.610900929594901,-0.4805703089255201,-0.3535758590440766,-0.6082616509587705,-0.2960723236290583,-0.1485312607149262,-0.23191722014716604,0
12.425,2.325,2.45,6.625,10.7,9.2,42.025,14.625,824.0,153.0,137.0,418.0,744.0,539.0,2875.0,951.0,17.0,13.0,16.0,16.0,20.0,13.0,15.0,22.0,-0.8535780190980448,-0.813200951777823,-0.6450209242223787,-0.4650040056499775,-0.27275728774486374,0.12024785925768554,-0.05010921507137105,0.07067443710290207,-0.050502308812848964,-0.10675172095213534,0.014886196841867394,-0.32720394819634313,-0.3316357632673175,-0.24979335740466393,0.12868476629924996,-0.060954196798550825,-0.7988492143700354,-0.1999813775016799,-0.06044984932948495,-0.13795480065894997,-0.39784073724393393,-0.48519098788291803,-0.418388406188124,-0.255368219652624,-0.7944724383077607,-0.876786112727742,-0.6449873786206834,-0.47342898062227756,-0.6807336775715412,-0.5077028262706141,-0.29070966542230137,-0.19740711241530187,0
15.075,2.525,3.05,5.75,7.375,7.975,41.5,16.8,993.0,170.0,190.0,403.0,511.0,477.0,2847.0,1048.0,19.0,18.0,12.0,20.0,18.0,14.0,17.0,15.0,-0.45707400140452803,-0.33307551611837566,-0.22410656909359683,-0.39175821385472415,-0.41611908476724535,-0.4177945367351598,-0.09337955071487378,-0.17116746699588134,-0.4467218664845531,-0.5138513323479054,-0.3491488678158482,-0.5274186968439698,-0.8254540243734318,-0.6623736332021907,-0.4442184698266792,-0.40584573942230245,-0.6574105675491339,-0.5439344488092106,-0.3224679692437948,-0.25035725785497903,-0.10155922667536621,-0.33431248504018773,0.2878651004804292,-0.009715505957773247,-0.8023907557009853,-0.6769866540288162,-0.5648362164769686,-0.2908410812247559,-0.42497584921609743,-0.3013302160628305,-0.15219947504161982,0.12373751198578418,0
19.575,2.05,2.475,6.325,9.825,8.975,31.35,17.75,1339.0,119.0,121.0,432.0,629.0,494.0,1921.0,1104.0,19.0,12.0,10.0,18.0,18.0,15.0,14.0,16.0,-0.9573794058791806,-0.8486566138155591,-0.6421957685188024,-0.3025425600700103,-0.2759013490890793,-0.3481019623195669,-0.1792926227229239,-0.20165315437582795,0.019354044332152733,-0.4411984770950991,-0.01531722762384166,-0.28952424024748746,-0.7330130903690758,-0.5817516909128857,-0.5461722321614138,-0.5092419329963367,-0.6132514640496088,-0.40302320704387407,-0.27637972793075666,-0.2930852623539337,-0.218141298287093,-0.22949351480918678,-0.15120829493920418,-0.4326382069338202,-0.472745859621368,-0.2828738223473816,-0.5049498239514406,-0.43696424933372285,-0.4044585958050408,-0.1021072519781091,-0.35584492158268755,-0.22350590219733055,0
18.3,2.35,2.35,6.725,11.05,7.775,41.3,17.7,1248.0,156.0,142.0,405.0,743.0,524.0,2713.0,1146.0,20.0,14.0,18.0,17.0,23.0,21.0,20.0,20.0,-0.7932309543824869,-0.4725822672661203,-0.49028075485955785,-0.27094890860594917,-0.43782888782808915,-0.2529663943437253,-0.10538714574917973,-0.09073965476197045,-0.4825158189652654,-0.3453509242536312,-0.4774301841748304,-0.10923266448732127,-0.556107439288472,-0.5567617202008945,-0.4714813434126388,-0.35363708409718514,-0.6259293722203291,-0.340097097013064,-0.33737238067231473,-0.07639142024858885,-0.3996256223879152,-0.1440882566971869,-0.28538613603563395,-0.12878620159946677,-0.7960759983332448,-0.48031307937988293,-0.3006661860578696,-0.2733516178900562,-0.8601001911222789,-0.5955161666517776,-0.49033892472033547,-0.3536174324878611,0
16.375,2.125,2.45,5.575,10.3,6.8,28.525,19.225,1037.0,133.0,133.0,363.0,631.0,415.0,1876.0,1270.0,19.0,14.0,10.0,19.0,14.0,16.0,17.0,20.0,-0.4716060935056654,-0.3173713521854664,-0.40626663261727763,-0.24980509391641026,-0.515869244663876,-0.2831477133300004,-0.04993168167703513,-0.14704062071043073,-0.25319046774782256,-0.287661345516845,-0.09449345379712736,-0.2026631273591231,-0.4813239215272617,-0.4889731998963085,-0.14972353643428207,-0.24640171208423925,-0.48963415537003396,-0.25240534161440115,-0.4246645347288323,-0.4457916332177944,-0.24781731910268193,-0.5439345460523792,-0.15012368186997938,-0.4340338725185436,-0.5434197199883145,-0.2607265681187141,0.11794501821398147,-0.13552604132392942,-0.5147587035269574,-0.3109156933702453,-0.02017066738433826,-0.23982961210346468,0
13.775,1.725,2.3,4.575,9.375,7.125,26.225,17.15,893.0,103.0,145.0,266.0,631.0,391.0,1689.0,1198.0,21.0,12.0,14.0,16.0,23.0,12.0,19.0,19.0,-0.3758440785392165,-0.22578503647035025,-0.032935007603622175,-0.24923726608856248,-0.3217103701702633,0.008595444001798862,-0.1612560879070166,-0.15055280608908456,-0.5549353434040624,-0.3475331916221628,-0.5406560380626553,-0.2554948467835519,-0.3571348524168984,-0.4610291728978237,-0.3662074663567197,-0.32723481295366263,-0.7508346151004651,-0.4447976915510661,-0.3171793207403557,-0.21488448591992113,-0.20696582920596593,-0.5101654996878717,-0.347961492606227,-0.4766077879145745,-0.40599610705127526,-0.21866314707519993,-0.30086467338415934,-0.43022352314884665,-0.632878103164518,-0.31279127276185126,-0.32444632309061433,-0.22294497064365107,0
19.3,1.8,2.725,7.3,9.95,6.05,35.15,13.85,1282.0,108.0,171.0,470.0,691.0,310.0,2319.0,942.0,19.0,16.0,20.0,20.0,23.0,12.0,19.0,20.0,-0.745588403438623,-0.6759452181195673,-0.38315260776814786,-0.2589526229547178,-0.4239957696257013,-0.23102972350248951,-0.2635258423878461,-0.42935338268807527,-0.4932286261598107,-0.2941184153421231,-0.48074790786255384,-0.4049395175800221,-0.6423651219096568,-0.3989273042692485,-0.48929183656343433,-0.5156457663845835,-0.7682117928518912,-0.6271073492836778,-0.20706786568162716,-0.33844732773392766,-0.14989984962986685,-0.3183527094350325,-0.1563317195854236,-0.25315846318949187,-0.6362480778437293,-0.4087392154245109,-0.6234301931433679,-0.2463893089407604,-0.5761151145267248,-0.3257042847450788,-0.28382356945154336,-0.02350794169594482,0
22.225,2.15,2.325,6.125,8.1,7.525,37.3,17.725,1464.0,127.0,115.0,410.0,569.0,406.0,2359.0,1166.0,19.0,14.0,10.0,19.0,21.0,19.0,15.0,19.0,-0.5834614942549818,-0.3505297437385539,-0.20589078352107978,-0.2806357539981761,-0.5244511354333026,-0.4412187193346716,-0.4311278260352839,-0.19267765099993947,-0.02445081401111526,-0.15730689415773721,-0.3895669506007105,0.056370658784422836,-0.5784738568697531,-0.3448982188505795,-0.44057171362952974,-0.3799424624909383,-0.6630074705684798,-0.4242765256272051,-0.37895677924036086,-0.36311535078890017,-0.33362913534428656,-0.1534525491370437,-0.40964419425058923,-0.194332875023595,-0.5109987688038223,-0.31641800939347814,-0.4053606342652631,-0.08700358841297003,-0.6401322131832968,-0.5271707956919803,-0.3370151162052413,-0.17633826789918763,0
20.5,1.9,2.325,5.225,7.025,7.525,30.075,15.5,1403.0,105.0,118.0,352.0,452.0,464.0,1763.0,841.0,19.0,13.0,11.0,14.0,13.0,17.0,13.0,15.0,-0.6316444347293814,-0.2902585100851505,-0.1510061910335424,-0.2175626593194403,-0.15507295001430998,0.04236562000489957,-0.2394644193069685,-0.29336234304892606,0.07200831474942677,-0.3382571625327674,-0.19436655554616178,-0.08611077670536223,-0.5537728841145377,-0.5009987773645469,-0.41873252282038986,-0.24155855666483048,-0.5023404792620573,-0.41987179590412615,-0.1416973837932014,-0.4228559688602551,-0.38018318712439386,-0.20977895792315898,-0.4161801010024698,-0.05864577059601332,-0.23230764028545137,-0.4748456535368059,-0.21087685976129714,-0.2615297133009593,-0.08554259891991006,-0.7088850548609085,-0.09275657479731862,-0.4991330648218921,0
15.65,1.825,2.0,5.05,7.55,6.1,29.775,9.95,1059.0,90.0,122.0,311.0,517.0,398.0,1858.0,549.0,19.0,11.0,16.0,16.0,20.0,17.0,18.0,15.0,-0.5944129415213544,-0.6222021402381174,-0.33482051834917886,-0.21106119897177472,0.013306183855554356,-0.027266123238417678,-0.035032566847819975,-0.25216016419435655,-0.21106869309505252,-0.18866805324612362,-0.23624086812806003,-0.0771734183435807,-0.46746299570140676,-0.39842031632245173,-0.23685547947080385,0.0280339347862695,-0.693445964720924,-0.3722196564012019,-0.406638862998061,-0.2023441460742537,-0.33986445081962774,-0.0323592559714045,0.015987612986372003,-0.3154307497917753,-0.3783737178736448,-0.2991184632361777,-0.09787722934372728,-0.42928298733450837,-0.006533658845258602,-0.2866957945432583,-0.11238099079692303,-0.13808591219944738,0
16.9,2.05,2.175,6.025,7.875,7.5,38.675,14.225,1225.0,110.0,149.0,407.0,538.0,473.0,2677.0,978.0,14.0,9.0,15.0,17.0,16.0,19.0,19.0,18.0,-0.7752495957652986,-0.49862641403225944,-0.5625723013108754,-0.2741181802819501,-0.22579805130164426,0.22512024146252477,-0.38344906610367097,-0.4502842220052008,-0.3525540707508814,-0.21765241526375034,-0.045010941394921095,-0.01329908327482275,-0.5794960358924854,-0.4121621508132226,-0.08616216874026295,-0.01539708060039783,-0.8889393466459882,-0.5536138832141183,-0.43532106330528697,-0.16389913592041513,-0.33512060392233833,-0.24779554839967607,-0.13030873880946783,-0.38900406010448024,-0.7291977370187185,-0.6363626791241132,-0.4653066911132825,-0.37444507400271027,-0.717427280910427,-0.5878345841826981,-0.09730844560627795,-0.21926046067055538,0
17.825,2.55,2.45,5.725,8.875,8.0,33.275,13.375,1208.0,149.0,158.0,402.0,574.0,461.0,1923.0,880.0,17.0,15.0,12.0,18.0,16.0,14.0,13.0,17.0,-0.765817948781054,-0.7261470932695728,-0.4724128638162841,-0.16997922016727182,-0.3136599943317762,0.0426696315349852,-0.08665051567034161,-0.20650368099205454,-0.3838954226747819,-0.161089156731593,-0.04526577756714368,-0.12895902858214986,-0.4202437542065498,-0.3150294542920849,-0.16555999456624895,0.011345043036505045,-0.746855693956051,-0.3204769942214221,-0.13623173444979994,-0.1399407179847662,-0.1722409430538962,0.023119231957139583,-0.347018162300662,-0.44732763716548607,-0.3861381307488519,-0.36660346475103744,-0.3296774349837587,-0.38909877245555596,-0.5268817083827636,-0.36014880589814197,-0.21569467316331023,-0.16342947394111573,0
16.55,2.225,2.625,5.625,7.675,5.95,25.725,10.025,1128.0,124.0,149.0,375.0,500.0,372.0,1504.0,556.0,18.0,13.0,13.0,20.0,21.0,14.0,17.0,17.0,-0.6245739630308715,-0.494379140513137,-0.25366629492499027,-0.317339923137076,-0.27759102615567083,-0.08058125198652245,-0.19444230688670305,-0.16602588308845875,-0.24639816950063223,-0.21257236331188795,-0.11528586474270858,-0.1223759786646557,-0.2534425407762311,-0.044797876362741455,-0.0725179149619675,-0.11168686655954543,-0.6711727877454335,-0.44225381310812595,-0.12110949638578486,-0.10936881405736794,-0.46030373449219,-0.10960047787231567,-0.425836318994049,-0.576496219856188,-0.41378618236008496,-0.6250860076019878,-0.44800714807251557,-0.5363766479866079,-2.2309922656789855e-06,-0.32612608706568574,-0.23351318131904442,-0.10796929719652162,0
20.125,1.975,2.275,4.575,8.5,6.075,26.0,13.95,1403.0,111.0,123.0,258.0,586.0,328.0,1610.0,780.0,22.0,15.0,14.0,17.0,22.0,15.0,16.0,14.0,-0.528676714864907,0.11812549807060936,0.012508232266022,-0.35935185476415343,-0.5019054230796167,-0.2888791967004395,-0.15033745207351795,-0.16466944627095667,-0.1229024200444738,-0.30823403197479177,-0.05010737218646164,-0.22582142930931726,-0.17884271664602744,-0.15553368346307697,0.023535559220783906,-0.02457698111210452,-0.7863383666533368,-0.34250918265195585,-0.09730623986169534,0.14932644469910958,-0.22980005993356648,-0.5320359653093782,-0.4078375030655742,-0.24277461950918602,-0.40947078173388196,-0.3378468442640543,-0.29078064440608564,-0.3855337884548134,-0.33597961963818634,-0.3334213829808723,-0.39341768597096105,-0.08793937174971257,0
16.425,1.675,2.35,4.375,8.95,5.925,38.025,16.375,1115.0,103.0,139.0,250.0,629.0,351.0,2432.0,940.0,20.0,12.0,13.0,11.0,19.0,14.0,20.0,16.0,-0.49446907446201,-0.18173159005356807,-0.3968041865696618,-0.2236204411928775,-0.6180221271511946,-0.13907499078697935,0.21354757753186226,0.2838142448224361,-0.10180207743321495,-0.18711752494065748,0.1122167093402334,-0.17584825311831231,-0.0758645487270747,0.006771941831409094,0.17311526759850895,-0.15995799489484508,-0.7465616067851789,-0.3203235951348463,-0.055708959467584175,0.10326749414549717,-0.27728951273064656,-0.7559097470029003,-0.24907252019741433,-0.5687077305414622,-0.5037982456593113,-0.5730837680436963,-0.2328094518658483,-0.437907992139988,-0.3786317627286746,-0.42974545427840505,-0.37478092584737893,-0.35520938556874154,0
16.9,1.9,2.375,4.075,9.3,6.3,28.775,12.5,1088.0,99.0,128.0,257.0,657.0,398.0,1828.0,680.0,17.0,14.0,13.0,19.0,18.0,16.0,16.0,18.0,-0.45975632639429354,-0.1324865780289693,-0.2837335565861267,-0.14219873491655244,-0.33914414064089277,-0.6020655797025894,-0.22661696613452142,-0.22139202228129345,-0.03384416567791014,-0.2285952816110304,0.11175393156357974,0.24201846135406047,-0.25809504372424713,-0.3627352101904195,0.04430608428695241,-0.014060660850905076,-0.6159780923811531,-0.2817822614245793,-0.21769989705791215,-0.22655198897840528,-0.3555081408794027,-0.5117197564317021,-0.3432923903885067,-0.4446909352792166,-0.5219591279441309,-0.31683631566481707,-0.6127081661844787,-0.3649579653876699,-0.3652077176417308,-0.26981671970762117,-0.43138642757520435,-0.46158002876598564,0
22.475,2.05,2.775,5.1,10.025,7.325,41.175,15.4,1489.0,130.0,188.0,344.0,700.0,459.0,2882.0,1124.0,15.0,15.0,17.0,15.0,21.0,15.0,22.0,24.0,-0.755267492130192,-0.6602986691604223,-0.6330501680245645,-0.36063513318053453,-0.5701106474056445,-0.5108228665310154,-0.3294844568532784,-0.2369098463426374,-0.48909804778209076,-0.31012883713636247,-0.2987009612588079,-0.34805597336426475,-0.465423093613028,-0.4999163520216148,-0.2933986467486783,-0.4617787229051379,-0.6084726871977364,-0.09785101003888273,-0.23284507571495242,-0.200258999409338,-0.37815732436229893,-0.31605427397048313,-0.3057476630302007,-0.06861677672818463,-0.9856477736011569,-0.7883893849624722,-0.6771934321488567,-0.40846048373381977,-0.7703918360549242,-0.2677914038301377,-0.047663118316228124,0.03902245337927007,0
15.725,2.2,2.85,6.775,9.95,9.15,35.025,12.175,1070.0,130.0,167.0,441.0,721.0,508.0,2212.0,873.0,20.0,14.0,13.0,19.0,15.0,12.0,15.0,17.0,-0.7845831933096121,-0.7803161944362186,-0.4880210068072048,-0.474022115688589,-0.21676187398384594,-0.1250992226705734,-0.1408653527522962,-0.25871772068900667,-0.1864752741596724,-0.018957199744596163,-0.1786848277927708,-0.2536112939108488,-0.373384767487626,-0.22163110098909494,-0.17842382050241223,-0.23751066301646773,-0.680121007776448,-0.2980851452445672,-0.35376144828165607,-0.21134527151141275,-0.6214351191536408,-0.6401335795845774,-0.6923390359570049,-0.3660294827534097,-0.7302517982379956,-0.56736630448315,-0.4871686140338885,-0.24928162631907744,-0.7977787083751708,-0.44823472954634896,-0.4305613011417455,-0.31063269838258156,0
13.925,2.05,2.8,6.0,10.775,8.45,37.425,16.475,973.0,136.0,174.0,395.0,736.0,534.0,2238.0,1137.0,18.0,14.0,14.0,18.0,22.0,18.0,17.0,19.0,-0.5092739674127421,-0.18037121678192897,-0.264672777230844,-0.3208385278467883,-0.37676976720212013,-0.17693959625544603,-0.35173191829036776,-0.2123359915588672,-0.36131301040574276,-0.14760816376148722,-0.1994110076021878,-0.38256143078459853,-0.5698058354492345,-0.5861692295865422,-0.4592059010912686,-0.5822871211042937,-1.0555559538491834,-0.9598034849935,-0.5786213413223094,-0.2821914516693987,-0.3734129707519543,-0.18956866696339097,-0.5369454512191248,-0.247066561431631,-0.5749721365020578,-0.23485037982830786,-0.526410483797337,-0.715877385601258,-0.5214971414735368,-0.2531540681621859,-0.2528136023251916,-0.3565819049768279,0
17.45,2.175,2.875,7.675,7.25,8.7,46.9,16.425,1229.0,126.0,155.0,448.0,461.0,602.0,2874.0,1064.0,24.0,14.0,14.0,18.0,18.0,17.0,16.0,20.0,-0.810654510210623,-0.46450051727023967,-0.17646747291214335,-0.19780549869651254,-0.30725234070307544,-0.3362042563847163,-0.29791416365640966,-0.08303462838843735,-0.00394162950874665,-0.3765758320063128,0.03454677212150363,-0.10638462140751898,-0.35826112564249757,-0.39099120399343645,-0.2166235569455826,-0.18603512799634123,-0.3655920641588467,-0.1068751044201231,-0.06092836506196138,0.23632967641555083,-0.47219704069620283,-0.32751697387360174,-0.3856085948982916,-0.3077445176218641,-0.39566003158756147,-0.25946366619646805,-0.2298662223042804,-0.3594931565281912,-0.3761877958723649,-0.19466300329643957,-0.12018247539918456,-0.2452249411491277,0
21.225,2.475,3.0,6.475,7.7,9.725,47.325,16.025,1522.0,162.0,167.0,439.0,485.0,667.0,3205.0,1142.0,20.0,15.0,13.0,20.0,16.0,19.0,23.0,20.0,-0.8436140234267296,-0.7368165951711659,-0.5989416939068344,-0.39217799615076676,-0.1969378650009141,-0.19148868973755423,-0.22358668875044155,0.058991226477433815,-0.2472549025773436,-0.31094859083971,-0.24876398541401154,-0.03223184439922794,-0.6794388361434551,-0.3312841112893516,-0.37390160627649177,-0.23224296478983975,-0.5072506488256497,-0.3460650863996777,-0.1998418932533283,-0.07243283352983114,-0.5679333695294128,-0.5505036450637771,-0.312367781121273,-0.2430889550555904,-0.8313815113756109,-0.642067703164252,-0.2869582146868043,-0.195000076379367,-0.6849003320159872,-0.24041817808926108,-0.026416160774185148,-0.07853290095794895,0
26.15,2.75,2.325,4.35,8.425,7.7,40.325,18.5,1862.0,173.0,122.0,287.0,537.0,454.0,2821.0,1290.0,22.0,17.0,11.0,19.0,16.0,13.0,17.0,23.0,-0.9415412323985868,-0.8006723523577194,-0.665316066138764,-0.5067162583605033,-0.3492403726388358,-0.39429744591972793,-0.15468691265198894,-0.2592582167438785,-0.12927989567010473,-0.40196830125762906,-0.27647480675484976,-0.2401351704096723,-0.4291368920938597,-0.05162215804896271,0.033943335370646456,-0.03554926282359414,-0.3992648642876614,-0.18351039778868591,-0.20947241775539857,-0.06038115374832281,-0.19650257710881713,-0.10174203747447574,-0.20145885063775962,-0.26448064635437346,-0.6482201962249448,-0.5147263047265662,-0.254941678715648,-0.06653634470152413,-0.5999595540502292,-0.36513034488474183,-0.11448125308889615,-0.12865240098275127,0
17.175,2.025,2.275,5.025,7.15,6.55,38.25,13.0,1212.0,116.0,131.0,308.0,461.0,390.0,2422.0,891.0,16.0,15.0,14.0,15.0,16.0,18.0,19.0,18.0,-0.8197385863940364,-0.6108551891527912,-0.5177970582742485,-0.49241357945894293,-0.2758477829399477,0.02922482297306578,-0.17825815257927166,-0.03227286703927394,-0.13561571224079236,-0.033110936407266506,-0.40048206986985996,-0.13354905298093,-0.38730797586985977,-0.26163800594452563,-0.17504307407402375,-0.10734706659002964,-0.3434054814633194,-0.011296214939868715,0.06413308512412923,-0.11906991833891249,-0.20251553182677623,-0.20471636438130916,-0.049750796087136215,-0.29190756371588766,-0.6177369957989525,-0.5729796559467332,-0.25924511829779223,-0.18904106645593954,-0.6585331502134967,-0.31649053277813355,0.13740692116382897,0.043398029613297535,0
16.15,2.1,2.625,5.65,10.275,7.075,33.4,14.225,1170.0,132.0,144.0,348.0,720.0,435.0,1980.0,859.0,21.0,16.0,14.0,17.0,21.0,17.0,17.0,13.0,-0.8665123584638745,-0.5843605191574908,-0.5293472150385353,-0.39634451135173965,-0.3345620553569615,-0.1569009253026951,-0.07592971427228781,-0.23138540558434628,-0.13852607989254137,-0.546523978103442,-0.19906445127530617,-0.2755482035708099,-0.4468332666227251,-0.49632404040689315,-0.4869858924702277,-0.17710564140238327,-0.7126847877280272,-0.31308058833075963,-0.21105410763850255,-0.15680648398466493,-0.3516639343141052,-0.4437597019184829,-0.3179937521361859,-0.3536696997947742,-0.6012488812233225,-0.6616369190394839,-0.5040919592768763,-0.44733121523227365,-0.431397666563127,-0.5598624839268888,-0.39125194548378583,-0.4022584064782274,0
15.775,2.075,2.75,5.95,8.2,7.925,34.825,12.525,1160.0,131.0,161.0,371.0,505.0,439.0,2228.0,787.0,24.0,14.0,17.0,17.0,14.0,11.0,19.0,17.0,-0.6132863037506124,-0.2977205924735548,-0.24113849212580912,-0.2680057909772791,-0.23664886113783729,-0.16972676167470427,-0.051963559954666116,-0.23698681289470871,-0.3438937878536645,-0.417945255921355,-0.3530420640824756,-0.12273094893559804,-0.39303703157940967,-0.1608966953391058,-0.2806608864214017,-0.05729189603156186,-0.6589855088165804,-0.41655896980760604,-0.43149553954274533,-0.3370629399201985,-0.42587703623301326,-0.5840881537785645,-0.5063770254753991,-0.5679166146146879,-0.5027833434690064,-0.45592627922418544,-0.4029926882498193,-0.6297351662255857,-0.47394024956338116,-0.2602860250747301,-0.24180967957897484,-0.3474556978914363,0
18.475,2.45,2.975,7.175,7.775,7.1,36.575,12.725,1269.0,143.0,170.0,445.0,505.0,351.0,2238.0,791.0,19.0,16.0,17.0,12.0,18.0,13.0,17.0,21.0,-0.6258533268524861,-0.25779950228295684,-0.40420198740810587,-0.30617671283482006,-0.5217983220293909,-0.3552292989955608,-0.4108579002137934,-0.2941148698659878,-0.2573705856497229,-0.27174247345711805,-0.27924814773864237,-0.16253131101549328,-0.27473659171458215,-0.23357461454862144,-0.3625537831866429,-0.18651466529237382,-0.4939374796625112,-0.4058959321398487,-0.2129546258342302,-0.4807064953041725,-0.09926410214751903,-0.20137199127340863,-0.36174661960196636,-0.3332211131845927,-0.3293698661230361,-0.36817178975810144,-0.2509486463801287,-0.48856711295635785,-0.4783385125115413,-0.36954227650556065,-0.3297953924773174,-0.5126938205493865,0
11.475,2.2,2.75,6.4,7.825,5.525,37.775,10.425,703.0,105.0,159.0,415.0,557.0,320.0,2518.0,677.0,17.0,10.0,17.0,22.0,21.0,11.0,20.0,13.0,-0.34642198389628276,-0.265092340493397,-0.1969918226354049,-0.4222386329166312,-0.18311250720049022,-0.14420979297646236,-0.40892051555602205,-0.28541607502141725,-0.25183076309000607,-0.05960804317993329,-0.40965918545600727,-0.1866825937806434,-0.3362324034633397,-0.07988532473817109,-0.06197517559791516,0.08544106838573519,-0.7113521985714991,-0.31244509196044995,-0.1349698634458117,-0.03900744297731191,-0.1703412046575448,-0.20326266427103576,-0.09634684002999422,-0.2871963169321592,-0.7657815157240695,-0.6400317604050577,-0.3100546042459113,-0.3813696569567846,-0.46313131399732227,-0.2526820683939879,-0.2187914792286914,-0.4059144064049222,0
19.075,2.125,3.2,7.65,8.75,5.25,26.825,9.35,1277.0,129.0,199.0,485.0,597.0,318.0,1736.0,572.0,20.0,15.0,17.0,18.0,17.0,16.0,18.0,21.0,-0.7789818245825875,-0.5940969122215018,-0.31186627248095206,-0.2848714599450714,-0.22943562838502352,-0.2607539683075698,0.07368842967764658,-0.18260627533943521,-0.5262729261173851,-0.5924499835663493,-0.3784726867609681,-0.3885129119545589,-0.5984561393587964,-0.5661140479990868,-0.5801070452059236,-0.5020226740834856,-0.7152658082652512,-0.4103283803773173,-0.44117601610225277,-0.3096103993563331,-0.23931297631882384,-0.21723749879301094,-0.12602251995792169,-0.241195126533474,-0.6308681855382358,-0.6905470718411331,-0.3689368083503303,-0.35059458435946794,-0.3626592600619311,-0.17281079879289454,-0.26255788292860455,-0.05926995208302802,0
28.325,2.25,3.425,6.3,7.325,5.875,28.45,14.125,1955.0,148.0,204.0,375.0,475.0,373.0,1850.0,851.0,22.0,18.0,19.0,15.0,18.0,17.0,18.0,17.0,-0.9427070629291356,-0.6730672156778744,-0.41181046576759484,-0.1514262739382702,-0.14671385699474968,-0.34401724346736634,0.06656735674272847,-0.19231581549987123,-0.12451417535966071,-0.3214681014819683,0.19379773205746245,-0.2730767229730458,-0.27193515876287183,-0.4009718931555384,-0.020277355011133164,-0.22758519990078688,-0.502604191359678,-0.2915311334971251,-0.07984427667540397,-0.14435407839456854,-0.4137067494131237,-0.4483134501100293,-0.28688741405110224,-0.45439411320326506,-0.818935353793593,-0.7906310747216104,-0.7806472339747241,-0.5422082126619701,-0.33049566165451716,-0.2891979837401217,-0.3243056354267737,-0.20011634588503413,0
20.325,2.35,3.25,6.425,6.55,7.025,35.3,16.65,1453.0,137.0,191.0,399.0,464.0,422.0,1989.0,1012.0,20.0,15.0,17.0,17.0,21.0,17.0,16.0,19.0,-0.9284740289477013,-0.5437620221541755,-0.3623033886049702,-0.2330718523017268,-0.019507387773493822,0.01481026090610815,-0.3632237647983294,0.11561093265604672,-0.23221445366390475,-0.2113286991662585,-0.13213649918484854,-0.21441236578657455,-0.3379792390435538,-0.35058065060105775,-0.1767179921865438,-0.12644868853151814,-0.6458404960244,-0.1670447151815077,-0.07882177088985495,0.06261665460861005,-0.30021048594590855,-0.2632071962095776,-0.425663508932776,-0.09519816013218502,-0.9248757882168479,-0.9800036071662251,-0.833032684943817,-0.34670501731878645,-0.5478280818089163,-0.5856592805495529,-0.4584507702542304,-0.23152138884876794,0
18.525,2.15,2.725,6.05,6.7,8.125,28.4,14.575,1238.0,140.0,176.0,369.0,398.0,436.0,1666.0,983.0,14.0,14.0,18.0,16.0,17.0,14.0,15.0,18.0,-0.5139954067481588,-0.33140923937659916,-0.31885233228859783,-0.3841113985438411,-0.4004244840640747,0.25696733029319474,-0.06340152146311817,-0.31696096488677855,-0.5262158702152552,-0.49012030088147246,-0.41486203256677867,-0.36215896134969233,-0.5076721179265422,-0.5103910980246681,-0.5523669410850216,-0.4181180557932149,-0.24677294857219886,-0.4083070320446454,-0.29725147734259033,-0.3622548915776747,-0.04968421569992333,-0.05185840834364547,-0.29587074272942,-0.2622660230733127,-0.19526878604723225,-0.5093806494626304,-0.21588109517336163,-0.33830945449741223,-0.6515673134291611,-0.40875157413380037,-0.27832157102348887,-0.2299039088927751,0
18.85,2.225,2.375,5.475,9.675,7.625,32.55,15.4,1271.0,120.0,145.0,308.0,609.0,423.0,1912.0,1035.0,18.0,11.0,16.0,14.0,21.0,13.0,15.0,19.0,-0.6590575290927292,-0.6218482869742091,-0.36433758316537057,-0.22033906116986302,-0.4168671641955078,-0.296568291462093,-0.28328207064049815,-0.1015483017619321,-0.4520370334980577,-0.47122053311326956,-0.3236221490552441,-0.04753281678828053,-0.22290564256965262,-0.23324728732727798,-0.3504463815059108,-0.2684584432556868,-0.4268957344477116,-0.3366847194078576,-0.24627486596534887,-0.36584077488995115,-0.011866260470037979,0.0076588093676524934,-0.2177234719609827,-0.47498539298172293,-0.2642401122759311,-0.30696981276608154,-0.23926118192291057,-0.29618088077915306,-0.6086699453968741,-0.45983330336389777,-0.20198108726739505,-0.149224528774443,0
14.775,2.05,2.9,5.65,9.375,6.475,26.55,13.05,976.0,107.0,150.0,347.0,662.0,372.0,1504.0,824.0,16.0,13.0,11.0,14.0,18.0,13.0,11.0,14.0,-0.7095343420789427,-0.8344238575464731,-0.4868193462058691,-0.4455886552295518,-0.10129362743370728,-0.24855809097157322,-0.29232797885846995,-0.2228309851146042,-0.07240248354668481,0.028314271665743587,-0.22356441406594776,-0.21783883785582425,-0.3037053739292938,-0.21620916207406388,-0.14052751329490182,-0.245956562899484,-1.1543320480261232,-1.0731639650361315,-0.46965963130650745,-0.23391178947811497,-0.09313922092811594,-0.09637792849735995,-0.15475366484674538,-0.40247480280817316,-0.23522395015601943,-0.24058994107292495,-0.3005946770643961,-0.13220748958499376,-0.3271704543240683,-0.28707748205745054,-0.2684736968172186,-0.23687579792873045,0
16.375,2.55,2.9,5.775,9.9,6.725,26.1,12.65,1072.0,149.0,164.0,371.0,686.0,346.0,1680.0,810.0,17.0,11.0,12.0,18.0,19.0,13.0,21.0,15.0,-0.46529405907376237,-0.4079264052759484,-0.21991747064153713,-0.2592832361888039,-0.24767573244196214,0.053739038529452304,0.1913956212871563,-0.18474740106348406,-0.1937555321855363,0.007703885134401098,0.047628836963869534,-0.27319591512206587,-0.4636951504443619,-0.4364968840401787,-0.23985605613062208,-0.42592857403582757,-0.9752029891415771,-0.9439260125237557,-0.5523183980492098,-0.4156149620628959,-0.08429207170796485,-0.43798454027707207,-0.15142656700831825,-0.41073170132129927,-0.39973125605251053,-0.37111163608714887,-0.15982631660077515,-0.5671414021242861,-0.5012814033829176,-0.42787299685520164,-0.3520152719704247,-0.4127107731382471,0
18.875,2.325,2.475,5.8,9.4,6.425,30.9,12.475,1289.0,141.0,167.0,340.0,612.0,419.0,2219.0,835.0,21.0,17.0,17.0,16.0,18.0,17.0,23.0,19.0,-0.6299814424763048,-0.5485776906574392,-0.10688254337349712,-0.21193190351215052,-0.3383650787502559,-0.08779870492126236,-0.31249178999577865,-0.34740871268616264,-0.4659497621060061,-0.13754507011647277,-0.29449395044401566,-0.38173980669431146,-0.4160813295232802,-0.6190529889880942,-0.3761768290990745,-0.5399940650702553,-0.7294497196848155,-0.565505579346009,-0.45719811395970733,-0.36869260486701005,-0.5969793130451954,-0.3767526677915666,-0.151839076062722,-0.2137350820979806,-0.6621960108709071,-0.1737521868796124,-0.2048330489970964,-0.1909744352429982,-0.6591315938555098,-0.4419767520034982,-0.4685941564388934,-0.30959191761999816,0
18.725,2.3,2.7,6.95,9.975,7.0,27.925,13.975,1178.0,156.0,162.0,455.0,623.0,395.0,1804.0,979.0,16.0,18.0,16.0,20.0,18.0,16.0,19.0,19.0,-0.6443742315392565,-0.6187545806399388,-0.4540050587256495,-0.3269751432424881,-0.33640846867344754,-0.1097970510513935,-0.09256176796346405,-0.3307997112263289,-0.31375279993932326,0.02554715885844637,-0.39506761382628597,-0.3653544199198149,-0.6157403012758438,-0.3543203302992739,-0.4793809937323521,-0.418972588648777,-0.5085744376430186,-0.4860617559376673,-0.344675906907326,-0.41958793278070133,-0.06667306085719579,-0.06307160634550486,-0.35347312229698424,-0.05374110046283142,-0.6659833787901038,-0.682315026591229,-0.48257687954885203,-0.4519093863097415,-0.6477306264591639,-0.50448882864477,-0.1181563799377435,-0.07030689982757704,0
17.45,2.15,2.525,6.775,7.7,7.475,27.475,12.2,1095.0,123.0,161.0,450.0,501.0,437.0,1951.0,825.0,20.0,15.0,11.0,17.0,16.0,13.0,21.0,19.0,-0.5455645897495802,-0.3143987673327354,-0.4220529940165844,-0.3511384134576232,-0.1872481868594431,-0.12661097683025918,0.11316076691047469,-0.037177847434355794,-0.3665413423747454,-0.17111219778910586,-0.08842674318006398,-0.24993223050985494,-0.7330825518316758,-0.4900478492092747,-0.4985522341095963,-0.40041476731633163,-0.606358736913821,-0.479943133139496,-0.31173767992726903,-0.32710925609941016,-0.10985616302491841,7.977350110055242e-05,-0.29248535081148763,-0.1469566702228481,-0.5650487392770307,-0.23471131623632985,-0.30248575333388966,-0.3708056675077766,-0.5833580986273113,-0.3920983987347784,-0.22176949076507815,-0.19156800888456713,0
17.675,2.05,2.675,5.1,6.1,5.25,23.425,10.675,1166.0,114.0,152.0,324.0,392.0,283.0,1600.0,710.0,19.0,9.0,16.0,17.0,17.0,17.0,15.0,18.0,-0.7688548002429338,-0.6107132323674583,-0.2552012050813035,-0.38908405093352993,-0.21008189954828793,-0.10987748095539866,-0.2176328444997854,-0.15816565052146728,-0.2770675847907121,-0.2910110626267058,-0.13738792710966927,-0.1926149546081332,-0.6181704512325857,-0.5539058674090827,-0.2540444217108998,-0.24580779627491775,-0.617105558097959,-0.35512234411183324,-0.4090040457919068,-0.26415032265426475,-0.02029303171710198,-0.07397516927320753,-0.19872388006630665,-0.1989168629162142,-0.5294009326955862,-0.24053869886754567,-0.29939115448703185,-0.282499419665861,-0.6108765198676316,-0.4630731701167091,-0.25264974650828664,-0.3308524479483307,0
20.025,2.075,2.525,5.0,9.0,6.1,29.25,12.525,1379.0,123.0,142.0,332.0,611.0,326.0,2030.0,867.0,20.0,14.0,10.0,17.0,22.0,15.0,20.0,18.0,-0.8234913045134553,-0.6046447324210736,-0.3879165860657148,-0.40176536856536904,-0.044603530577267916,0.00626479169445722,0.007909916608195866,-0.03184979174782226,-0.09889458467735578,-0.28213300170641664,-0.020037104656528956,-0.17707011422329616,-0.5578605539645363,-0.3192871538179341,-0.21279380758988223,-0.1402979157928997,-0.7341213636810088,-0.33391229584397863,-0.16940887653758718,-0.2527828265589884,-0.14060434782519363,-0.4164013215819577,-0.1610654378142544,-0.15153231671210757,-0.819344573585883,-0.6033521191557986,-0.7557245741750219,-0.5326838672882015,-0.5381634913964024,-0.3420646381597505,-0.017918077068647738,-0.18824822326321602,0
18.2,2.55,2.525,6.825,8.6,7.325,29.0,11.725,1274.0,147.0,153.0,396.0,535.0,374.0,1783.0,727.0,21.0,16.0,12.0,16.0,12.0,12.0,19.0,16.0,-0.7347504513973114,-0.45257958303921203,-0.44374521145554835,-0.5667573562694557,-0.13344075128525443,-0.2903343602244712,-0.05225156811713964,-0.6093827077037628,-0.3126837751688731,-0.3893861337741553,-0.3354100073161368,-0.5016379750388894,-0.45865197973035676,-0.5170953753551019,-0.40500766510876984,-0.3703334381821522,-0.3876738887582402,-0.2868389718544201,-0.32373835401372747,-0.3147178594030252,-0.049165976989316046,-0.4796065320224032,-0.21280174262847368,-0.4674458492236485,-0.4888632451323053,-0.3514359497301549,-0.4156847146027694,-0.14688172503365804,-0.4195647809273498,-0.2732847599857594,-0.13685067743920382,-0.32711563059345045,0
13.625,2.05,2.525,6.05,6.725,6.675,34.45,13.525,917.0,107.0,156.0,376.0,423.0,448.0,2266.0,862.0,20.0,9.0,14.0,15.0,16.0,21.0,21.0,16.0,-0.8274254429658618,-0.6590863256412703,-0.48408359500195236,-0.4210535434793028,0.06369658886535953,-0.42876778655271547,0.010223046541377966,-0.24107558142463512,-0.3621250718051559,-0.13770702725148173,-0.3578882940255451,-0.1888342210536888,-0.45069601673992254,-0.3757630061659008,-0.5710678380616278,-0.43633872504513327,-0.6121129015799899,-0.30240792665591976,-0.4282623172351408,-0.43800731591667075,-0.37058321593661125,-0.33856278643003423,-0.3745854625076803,-0.37532722914217254,-0.8301793698715885,-0.6933359965251495,-0.6871213269173296,-0.5959075230899076,-0.5897767822841036,-0.6566462921391035,-0.5017904055604822,-0.5117531231081583,0
18.2,1.925,2.275,5.65,5.225,6.1,30.35,12.8,1299.0,116.0,135.0,365.0,375.0,389.0,1885.0,735.0,23.0,12.0,13.0,19.0,22.0,17.0,15.0,14.0,-0.8354256463957586,-0.6255684595178718,-0.5423362237798517,-0.43856779897408577,-0.4896168697636344,-0.29842973754368174,0.17572511583149708,0.13043488499615588,-0.36933016333261226,-0.13925173262066806,-0.03208447623692539,0.10233265275069346,-0.542486662638783,-0.29745118057756953,-0.10824666401028714,0.00039559589251374894,-0.6266048933436512,-0.219468518938331,-0.34348046258375126,-0.4697477460485411,-0.2687763114571057,-0.2598913276776631,-0.5079139147360596,-0.032694087053660316,-0.7148795381000397,-0.6949300701748957,-0.6716220920059294,-0.6240868521562128,-0.41271359849354095,-0.5752967368437084,-0.44459450409799095,-0.30419994099136216,0
20.65,2.425,2.025,4.75,4.925,6.475,34.65,10.55,1419.0,153.0,132.0,316.0,361.0,393.0,2344.0,728.0,18.0,13.0,17.0,17.0,19.0,18.0,21.0,19.0,-0.7101666663225774,-0.17246885943165843,-0.04270138886177724,-0.10498650679071136,-0.26529793740477947,-0.23303817317045258,-0.3199279584932346,-0.1028835697412288,-0.3392572651227592,0.02833807220318537,0.20037934820201975,0.20902861360280944,-0.32317469840254254,-0.08899198930885939,0.22814778332739208,-0.20930541239772169,-0.3221877318613046,0.1270877004497161,-0.17898496873060482,-0.4339596223501798,-0.2836311629236088,-0.18990079132251547,-0.28102733188811296,-0.2506577533273955,-0.7794329887968466,-0.46287215951587984,-0.4303412829197864,-0.4347295072099622,-0.7984798593138062,-0.6625992260596488,-0.573281379646664,-0.44858237591855316,0
19.75,2.075,2.65,5.975,8.325,5.5,36.75,12.65,1237.0,121.0,162.0,387.0,546.0,365.0,2565.0,799.0,19.0,15.0,17.0,16.0,17.0,16.0,17.0,20.0,-0.5053888216598632,-0.5847058145997109,-0.24819236198771988,-0.3675912469393706,-0.09255363383778424,-0.23436676498269618,0.08482935333149577,-0.01461572077593628,-0.2916426348866393,-0.047230141135592714,-0.059457602928839316,-0.3440977403799252,-0.2915473607802439,-0.17133157663413637,0.06204333688201925,-0.40286389963835145,-0.34522990520846447,-0.11312195805886247,-0.2159517859125381,-0.26890318157768806,-0.45635756648809894,-0.20583850886325555,0.033186596058806576,-0.11435621754865441,-0.9863388553119419,-0.8446128381829799,-0.3716408503603544,-0.19237290223171563,-0.541143229438641,-0.30729277358680296,-0.10218662536704969,-0.19376858099241437,0
22.175,2.225,2.675,6.3,7.6,5.825,34.425,14.4,1482.0,134.0,170.0,419.0,462.0,385.0,2310.0,989.0,23.0,15.0,14.0,19.0,14.0,21.0,16.0,20.0,-0.5876470777076249,-0.5269295657726338,-0.1884789784182437,-0.26560361827031154,-0.36583279312204225,-0.30476046268291923,-0.08840264950370022,-0.05538594465477143,-0.6462958932411556,-0.5608800256915918,-0.44533448746089627,-0.3092984680547898,-0.44413232831874094,-0.22677982267335628,-0.0954967715890354,-0.21343371396856747,-0.3583314665870722,-0.5017641850395534,-0.3523318922290358,-0.43304459480935453,-0.5180009719289441,-0.22433148657544658,-0.42397127665406675,-0.2057893789745066,-0.8880260664879479,-0.6570156849859329,-0.5413903185190544,-0.2505110778460619,-0.6472281654551243,-0.4654057828910304,-0.4451906655116392,-0.0519600355450113,0
16.225,2.35,2.7,6.6,7.45,7.025,28.825,12.025,1102.0,143.0,157.0,427.0,541.0,438.0,1706.0,805.0,21.0,20.0,11.0,18.0,21.0,14.0,15.0,20.0,-0.537641972128815,-0.11973063360757596,-0.28719996968372724,-0.33082536700039483,-0.5377160162454638,-0.3791516740297566,-0.26972556550782273,-0.058294519609258355,-0.45154601727374455,-0.38869912827477676,-0.48312565250768164,-0.45270190213575445,-0.45559768239165843,-0.17659773256878733,-0.18123174724434996,-0.2751603527763974,-0.6429341922136965,-0.272504944722131,-0.2529283890159249,-0.35326526683077664,-0.338955623462065,-0.3373503572772331,-0.37876515267151994,-0.23185015081816338,-0.404468151209372,-0.21281794480106223,-0.4442726744318686,-0.3631259216879687,-0.4096706614326828,-0.1324187513427045,-0.18237571970284286,0.03946337871657985,0
16.6,2.65,2.4,5.375,7.125,7.05,36.375,13.925,1240.0,180.0,147.0,363.0,488.0,443.0,2549.0,981.0,23.0,18.0,13.0,15.0,17.0,16.0,17.0,19.0,-0.8528284717167945,-0.6638613707404509,-0.646572832220613,-0.6865233904639649,-0.6139098179765624,-0.13734406946336553,-0.242475830996996,-0.18904671851579014,-0.3852865800690058,-0.31241377763467837,-0.5088439592880784,-0.3065589862987673,-0.5195912907903291,-0.40335964875209535,-0.45863380621804606,-0.37891242823464716,-0.8039994066262095,-0.7055448769625441,-0.47961172620711945,-0.3680573696099079,-0.30962517555339597,-0.19711959557683945,-0.4378312614974788,-0.24729575562866082,-0.595157022260388,-0.2230451257552777,-0.43051848176503144,-0.388367090129609,-0.5562700988690877,-0.24185224863217056,-0.20594352592829465,-0.15967021008667917,0
19.775,2.675,2.5,6.05,8.0,6.675,33.2,10.8,1402.0,174.0,175.0,420.0,528.0,489.0,2127.0,689.0,21.0,20.0,17.0,17.0,15.0,21.0,20.0,12.0,-1.0034586600842867,-0.7563209990611462,-0.8473533297645667,-0.39437476652733866,-0.5680173717193024,-0.2799562933090008,-0.24867575415960547,-0.2578231886194012,-0.5851668803155845,-0.1597092888248349,-0.44491691802662403,-0.658458284322093,-0.5588640471053796,-0.12491073070854625,-0.2641840003190197,-0.5622319574027643,-0.7706546868121942,-0.4316962271000189,-0.5072449138153371,-0.2837993494048246,-0.4890426278182086,-0.38916878356205975,-0.20335586647965007,-0.26338071927234524,-0.7833263133051356,-0.8051767360049704,-0.5846380743458938,-0.2369148739873727,-0.35447106188347943,-0.10147024696537547,-0.27517555564264123,-0.3110673566309245,0
22.05,2.65,2.775,7.3,7.125,6.75,33.325,13.15,1517.0,184.0,178.0,461.0,442.0,429.0,2140.0,903.0,22.0,12.0,17.0,11.0,16.0,13.0,17.0,19.0,-0.8904552310383432,-0.5782598760661289,-0.47323880515563493,-0.2844820972056349,-0.6612376478662363,-0.3028378727487621,-0.16362086738363404,-0.2455711814335968,-0.6186510298614418,-0.4838984785419555,-0.24931109305104754,-0.4315482675192185,-0.49393757808538213,-0.3673389465937081,-0.25623851556274857,-0.512601735297888,-0.7208681972164139,-0.32703523673919693,-0.20678767856999664,-0.16009678544429376,-0.3340999210041611,-0.4717740797041882,-0.13256570502317963,-0.21852722010177772,-0.4574615405825324,-0.2772331210532679,-0.22743908444956487,-0.18657077574832595,-0.609986661635108,-0.3649621501314585,-0.18378024364622497,-0.30339983060645875,0
18.7,2.05,2.2,6.4,8.6,8.3,37.25,12.475,1299.0,124.0,139.0,430.0,538.0,476.0,2626.0,790.0,20.0,14.0,14.0,16.0,21.0,16.0,23.0,19.0,-0.8575389076507471,-0.6260939720574493,-0.212930986683782,-0.10991558930989064,-0.45829820521210324,-0.09212383419359345,-0.7132190791602653,-0.4476391451400817,-0.1911614173150455,0.06809890369513417,-0.2049207649475531,-0.21279801327036874,-0.5063237467864321,-0.041553283697442475,-0.42035494281674785,-0.4731802031749553,-0.6562673045604157,-0.5549216681134083,-0.22880201416053117,-0.26674711348875596,-0.6021167237775596,-0.7919959944232366,-0.49721514119174154,-0.47955778861123477,-0.907028319844297,-0.7228238970474286,-0.33543999103317224,-0.36056546197664285,-0.9642498920088672,-0.873037593035326,-0.4817263448222963,-0.21419595489493304,0
21.0,1.8,2.525,6.075,8.7,7.925,34.975,14.8,1321.0,106.0,154.0,364.0,591.0,474.0,2434.0,966.0,19.0,12.0,15.0,11.0,18.0,17.0,22.0,22.0,-0.4884889131019124,-0.21812643594753603,-0.11266396248909007,-0.17373690497214256,-0.2689847212937961,-0.20838767812723438,-0.15739326556400784,-0.08232309380408481,-0.37953220062756593,-0.3256474422393958,-0.4187941433113842,-0.3776133723552537,-0.363966793013485,-0.28865473028167593,-0.43761751942803967,-0.1867491787420225,-0.8276215267402958,-0.5616753539605678,-0.3341646300202555,-0.34347520145936794,-0.6350915127809168,-0.5102253446407471,-0.6240363830572385,-0.38544332408912785,-0.5986366988787161,-0.07440502809168824,-0.06975738600181369,-0.23130717841094808,-0.578318131072693,-0.3916532039899411,-0.2732818564599638,-0.12581001693436963,0
19.225,2.325,3.0,5.525,5.525,5.3,26.4,11.05,1385.0,147.0,185.0,346.0,337.0,308.0,1575.0,684.0,23.0,14.0,15.0,17.0,16.0,16.0,17.0,15.0,-0.7881671832981608,-0.4506082467491238,-0.09677731278558313,0.04329661190261695,-0.2593053890265452,0.13853459504706905,-0.11689797939785541,-0.08709305302400182,-0.5518427071438811,-0.3389396618002226,-0.48471326003996545,-0.28360769912141326,-0.3848592925644462,-0.41111576768440034,-0.14589560853380887,-0.1701763534580544,-0.36975296590050905,-0.3446876794911083,-0.18766730607666374,-0.04860472329467616,-0.3167107247251616,-0.15484793374189498,-0.22285091394223858,0.03157322943637741,-0.4348590366396303,-0.4507719124062256,-0.14268369304362882,-0.23014673428883609,-0.38463025062529177,-0.33727649355611167,-0.30799400383872344,-0.07021374741116507,0
19.9,2.45,2.4,5.7,5.375,6.725,27.2,11.2,1428.0,165.0,138.0,381.0,309.0,330.0,1766.0,707.0,22.0,16.0,13.0,18.0,13.0,13.0,18.0,20.0,-0.9110045393838568,-0.6948533797184984,-0.536420620746291,-0.13572728560097044,-0.4505141519943771,0.0023346775049460596,0.09790398685757276,0.0457448201073776,-0.32828157470670677,-0.34813839310080213,-0.2872300024244426,-0.22206989712004346,-0.48851956556012577,-0.2558827707831623,-0.06260309865844191,-0.3138465339435554,-0.2080299797741907,-0.055476566202728,-0.531111274105083,-0.2091323153841313,0.11959223197728207,-0.5666955289554482,-0.13290779276635944,-0.2880876779795509,-0.5414318373152672,-0.5981209828517625,-0.40061476292545906,-0.2528360289489192,-0.48096590118078697,-0.4081979671502856,-0.14112945897202253,-0.1089992675383582,0
20.95,2.475,2.125,6.675,6.4,6.95,20.225,10.4,1406.0,142.0,134.0,414.0,427.0,447.0,1249.0,668.0,19.0,12.0,14.0,16.0,17.0,17.0,17.0,17.0,-0.8355847321321269,-0.727476287035924,-0.3526922304216078,-0.12046279012752749,-0.2879390017108898,-0.3703717797976908,-0.1794563999674226,-0.3784300475563998,-0.43999659661299945,-0.2361799954961833,-0.2567165907533626,-0.18545930474990163,-0.6549713420180613,-0.6976435608790603,-0.5482416858663572,-0.5374946786765546,-0.6332173398272994,-0.41925811627254794,-0.23410383294977122,0.15830806506704706,-0.36311043687072725,-0.5913592572262556,-0.3548211458472752,-0.21403779867334127,-0.46393825724204985,-0.596409031164707,-0.40042777581521816,-0.2344437993259014,-0.5390534307713727,-0.3103161785937313,-0.07253260143134677,-0.2106962455109893,0
20.65,2.05,2.6,7.75,7.7,4.65,20.7,11.65,1462.0,124.0,170.0,497.0,506.0,293.0,1327.0,686.0,17.0,18.0,20.0,18.0,19.0,17.0,17.0,17.0,-0.7306022409707752,-0.5332838234192696,-0.4133094262108145,-0.12339925787014767,-0.3686312156326357,-0.3329619898615996,-0.20993563953152297,-0.13719050986044373,-0.438768609314562,-0.21605928336107527,-0.2554497476687973,-0.3433039323744969,-0.7193486623300073,-0.608342012950671,-0.42777137754386135,-0.37965792203826576,-0.7301685760841831,-0.38739969067307967,-0.014039433324995973,0.0013999808206580614,-0.4102484086081914,-0.23828901877633887,-0.5025807843862136,-0.4138366471503569,-0.5789883853990173,-0.4395557023407573,-0.5306173616166745,-0.31395847262974386,-0.658901687164208,-0.5798778094835023,-0.6780643554968575,-0.49980715457757824,0
18.75,2.2,2.875,6.5,8.575,7.1,28.575,12.375,1294.0,130.0,181.0,394.0,533.0,434.0,1787.0,744.0,17.0,14.0,14.0,17.0,18.0,13.0,18.0,14.0,-0.511277988087785,-0.11391258668063405,-0.47449903371085067,-0.35769726993737144,-0.31954190334084565,-0.13959444291759962,0.013458388656611262,-0.22734398728622135,-0.31443578626891544,-0.16746514198858298,-0.05930518422046288,-0.13075671652223853,-0.2633067991816469,-0.1807881050396583,-0.24805276253629538,-0.009917698789344379,-0.3727328059414089,-0.24635008242273035,-0.1791418063811867,-0.19697028483678472,-0.1464178275865925,-0.17035604439329533,-0.17311524088988503,-0.4444801372583771,-0.4583342534295913,-0.41848741638612774,-0.2983827343859589,-0.41567916764824697,-0.3311989284417026,-0.14761628542952243,-0.02750537279661488,0.04897459673767932,0
20.95,2.1,2.5,6.75,9.825,6.6,30.25,12.35,1249.0,128.0,145.0,438.0,687.0,373.0,1828.0,789.0,16.0,20.0,18.0,18.0,18.0,13.0,16.0,19.0,-0.46739952236440174,-0.521686076391245,-0.3788803247068344,-0.26550477303249126,-0.42502076449870135,-0.39947901843692446,-0.20092992667464976,-0.3175957387415533,-0.45559622823605583,-0.49250592996895454,-0.28927836753126185,-0.38435525702207723,-0.5334272109185855,-0.5400714504448393,-0.29085736337839596,-0.2730413828803341,-0.6432201072365537,-0.2048453041424198,0.023214320927555192,0.0929985305406403,-0.063676913433082,-0.2714055086549464,-0.13114140221321066,-0.33612379844295553,-0.3601610096331042,-0.35661091178693377,-0.09430661763449107,-0.26046643705634187,-0.4508873386895141,-0.31750519915710024,-0.06020243522731494,-0.08270768300034713,0
30.25,3.825,4.35,7.5,9.25,9.2,44.525,19.125,1916.0,259.0,248.0,446.0,635.0,465.0,2727.0,1266.0,20.0,14.0,14.0,13.0,17.0,12.0,18.0,21.0,-0.6685843115352397,-0.5939597060226733,-0.6684703886347132,-0.21158863288734087,-0.36579999299620036,-0.21297264341144062,-0.27815888116224047,-0.4683367385458752,-0.41833317123462693,-0.45034628626962114,-0.3554768720389862,-0.4826109187331133,-0.28580875770913633,-0.4250246632746828,-0.1746101484603672,-0.43898164894211483,-0.5149550630334132,-0.2949188993693299,-0.053128225066482175,-0.15354565024644015,0.10974200148952015,-0.33736161409183635,-0.2985958559860926,-0.05505339371282633,-0.39872122098089346,-0.34339041161526673,-0.4404289066982805,-0.3771002329508581,-0.5656573489318283,-0.4203163300829935,-0.36712920448213227,-0.3487599650514399,0
34.85,4.85,4.725,8.725,13.0,23.95,79.05,39.85,2324.0,303.0,280.0,516.0,863.0,1346.0,4521.0,2391.0,20.0,16.0,20.0,16.0,21.0,14.0,16.0,16.0,-0.7982994747342695,-0.658836946131915,-0.6220362105897572,-0.44664695136206234,-0.4027091675851902,-0.4506979447322181,-0.14319499820712936,-0.4187665399222216,-0.5496570830588516,-0.6105406742940758,-0.4439652626690825,-0.5964892690590232,-0.43501647626090906,-0.41846218425177417,-0.44361163411768467,-0.4365288101150235,-0.5467147141404622,-0.3028524825937219,-0.24271122270365506,-0.08193718211500622,-0.2773080023360593,-0.5546002637304092,-0.24226797722130555,-0.444772815508097,-0.5360644060665336,-0.4487281739121748,-0.41665443996681345,-0.2685646404967583,-0.6320964643061033,-0.5798312071461453,-0.27921042140069646,-0.20322398298389563,0
24.15,5.525,5.025,10.025,18.95,36.3,84.5,53.275,1553.0,356.0,322.0,643.0,1210.0,2253.0,5088.0,3400.0,18.0,17.0,19.0,16.0,21.0,17.0,21.0,21.0,-0.299362052549759,-0.4244821444035579,0.10013660523612318,-0.35007798367394827,-0.425187589244646,-0.27717567085486644,-0.09189922318936554,-0.3170647702116507,-0.27219535594999444,-0.23178307200457643,-0.23997613880724847,-0.3479744790605549,-0.35039757776389235,-0.38293091408655167,-0.44197899211746444,-0.15440843623556935,-0.5042750892829699,-0.22445111079840596,-0.2907639597934849,-0.40507194103783767,-0.49629126296463627,-0.3755335282820173,-0.34190390622935735,-0.35988292103766223,-0.5889626144011366,-0.31037208334570554,-0.10867373373683599,-0.1447330963403002,-0.6330523047312845,-0.4026591469829083,-0.1170824631012605,-0.19509064349876615,0
27.3,4.1,3.5,9.2,14.425,20.425,64.975,34.75,1679.0,276.0,235.0,559.0,889.0,1169.0,4220.0,2185.0,17.0,19.0,17.0,14.0,18.0,15.0,17.0,21.0,-0.43531702055869387,-0.22811651113453915,-0.20330418397827557,-0.30015817190834104,-0.3640870063723865,0.05091970029577798,-0.09501955712627763,-0.18525180036871253,-0.2771991856016847,-0.16595787338868798,-0.25576817708208544,-0.11069977219838313,-0.3294213157724953,-0.23784792369835,-0.1837749233434381,-0.07144452530224903,-0.347937346853315,0.004308906011966395,-0.21678009771901455,-0.4267972077935801,-0.0476083243695182,0.022833951953000937,-0.14728757788219968,-0.35399478394929845,-0.40780517663104554,0.03637262234915797,-0.016536120266714614,-0.3052602200118878,-0.3674396228959233,0.06793797303696177,-0.10376768371534043,-0.2517450777178541,0
22.525,3.7,3.7,10.025,10.3,17.875,51.65,24.9,1569.0,259.0,226.0,582.0,631.0,980.0,2793.0,1544.0,22.0,19.0,11.0,18.0,21.0,14.0,12.0,16.0,-0.5763986298204702,-0.27327221966725057,-0.2855794083515699,-0.26600636249845105,-0.4646187032192985,-0.07692237793183326,-0.23819287423682187,-0.30941803841042514,-0.325088666649612,-0.04681923206451224,-0.33777923614798283,-0.26634639848951686,-0.4853354880341646,-0.35331354601472276,-0.5624865833777124,-0.42815559066137615,-0.4561037739698459,-0.34544462436864576,-0.27074203975142225,-0.25193589665355337,-0.25754942276238657,-0.4117286322041735,-0.37446100992665465,-0.4953100967564801,-0.3546086355343941,-0.17846042410679044,-0.5032391789429265,-0.36439067296817595,-0.39888669622259076,-0.3516992116085288,-0.3378261111566196,-0.21781365407258538,0
26.45,3.95,3.925,11.775,11.075,19.45,55.075,26.425,1989.0,281.0,264.0,800.0,769.0,1081.0,2991.0,1702.0,26.0,21.0,23.0,21.0,22.0,13.0,15.0,15.0,-1.0347614407616081,-0.7190068953805674,-0.7975560215535519,-0.44445137898293074,-0.7762393665420908,-0.3540644842491976,0.14165622316585538,0.005873758051546906,-0.43338602064160303,-0.10487940640403749,-0.2360581446973016,-0.06792948816389795,-0.4762554327681485,-0.25874061151237954,-0.5314000808193255,-0.1766027620053392,-0.6426997916758188,-0.37946993354350583,-0.44976246816540466,-0.16835094756719446,-0.5108539410772668,-0.37957600819032405,-0.6775728077217232,-0.5561028367004386,-0.3124946941061408,-0.25991074235532546,-0.5228480190070957,-0.3468329782823146,-0.4471011812521937,-0.2798037326550184,-0.33763519447997825,-0.31977308610687744,0
28.8,5.25,4.95,13.35,16.1,20.85,52.55,28.825,2019.0,353.0,355.0,888.0,1131.0,1086.0,3369.0,1767.0,21.0,17.0,19.0,17.0,21.0,16.0,18.0,18.0,-0.7077213241360996,-0.5833552979710604,-0.2071960906213721,-0.23750578068857942,-0.6461590482779019,-0.5306072913055798,-0.35773268711798895,-0.3692717556076675,-0.5169363773569903,-0.16189150351107354,-0.3493203046642334,-0.22545108696282223,-0.7926782734097377,-0.6921380390918264,-0.769241690501576,-0.40811577343249067,-0.7272136801554744,-0.40398779886434055,-0.49098224037493426,-0.5757147339664564,-0.32901971780292016,-0.35884006925343465,-0.4853053865739443,-0.3876713574460241,-0.5248454047273786,-0.532244454582922,-0.43087595780730514,-0.3752919214923348,-0.47480947220059083,-0.3675479677842945,-0.5251693164337019,-0.3609714909114495,0
28.8,4.275,4.35,13.875,14.55,27.0,60.6,24.0,1893.0,277.0,285.0,920.0,977.0,1402.0,3975.0,1410.0,18.0,13.0,17.0,17.0,17.0,12.0,14.0,15.0,-0.44446515432280376,-0.16222259309373424,0.0020183174052704443,-0.14343302939324715,-0.49720043257819513,-0.2996525500604477,-0.277121237831484,-0.14560774081040181,-0.4009496479273913,-0.13488747891660788,-0.21549273213317216,-0.18818433305257493,-0.7737141311556897,-0.6402061244938316,-0.6972713220982099,-0.5328265490803478,-0.7240107681749127,-0.5308207595891447,-0.45257064944515524,-0.23764864894798252,-0.4752375423049998,-0.6343945944714597,-0.664488305626402,-0.44693348817829953,-0.5228509466616547,-0.4528313841589178,-0.5670601049020281,-0.239159102695719,-0.19947417062166944,-0.40700695933802133,-0.03473709172067517,-0.19750216108374102,0
22.225,3.625,3.775,11.175,11.475,20.225,55.225,23.625,1434.0,213.0,239.0,715.0,813.0,1188.0,3645.0,1615.0,17.0,15.0,17.0,15.0,22.0,15.0,17.0,22.0,-0.615230450204551,-0.38020926133229993,-0.23534759762794083,-0.2820256397610774,-0.3843399665936491,-0.354073387571646,-0.10759253310524845,-0.21858635141739727,-0.4543283000193427,-0.29517375444774197,-0.45540030807285703,-0.4611743460013869,-0.6250706800500876,-0.3929862782430604,-0.5790681322864378,-0.5432502433033044,-0.582631145079881,-0.2380341255304328,-0.1636406662097064,-0.13320083636336125,-0.5640682271336356,-0.5532349404689202,-0.6418807228616734,-0.500666308588641,-0.598365985881311,-0.28591606594270524,-0.5064382058319737,-0.3554721962732869,-0.841378677714602,-0.5454976698405898,-0.8774320044210876,-0.5654482582958102,0
21.525,3.35,3.425,8.9,11.925,17.125,50.575,17.3,1320.0,216.0,200.0,488.0,807.0,860.0,2927.0,1124.0,19.0,18.0,14.0,14.0,19.0,11.0,17.0,19.0,-0.7417212185243541,-0.6185979135930054,-0.5953762725165106,-0.35785321956601507,-0.43458873262265213,-0.3931859735028668,-0.12556144912445996,-0.37083025634514166,-0.45890631612622773,-0.6647736077446431,-0.3476748180482037,-0.38273117735185624,-0.42367499572625206,-0.6785381930587652,-0.5345522190793179,-0.6169671200037056,-0.6791692439894772,-0.29780394010347216,-0.4490565486444324,-0.4443415320323817,-0.3890050991021156,-0.5759213389032373,-0.5918360924532005,-0.5858048250146036,-0.472588264641146,-0.5074881078335127,-0.5085341463552944,-0.460782388322463,-0.6181321632821837,-0.38123502169233126,-0.18418768934178809,-0.14954099842373653,0
19.8,2.925,4.225,11.125,12.7,19.55,56.075,28.05,1252.0,188.0,243.0,622.0,851.0,1007.0,3273.0,1672.0,15.0,19.0,16.0,14.0,21.0,14.0,16.0,18.0,-0.5541499411352405,-0.5338629143689083,-0.42168500503208384,-0.4134369701622973,-0.5144826550247231,-0.2492971186884506,-0.132610070523905,-0.1870917708973846,-0.38438401974941966,-0.34635371219331607,-0.28924316969301994,-0.30885823341777635,-0.40813270930655293,-0.6724649675362371,-0.4326818342517713,-0.6543387186991267,-0.7626837943269333,-0.5890210674784543,-0.3826143554403823,-0.15705128388590278,-0.44338433817810635,-0.5014343837403591,-0.6303034163987926,-0.5790235400356764,-0.39483490402919724,-0.359678930886972,-0.24235855070591836,-0.29088589723891406,-0.19712138928595563,-0.2646013468590618,-0.0525771230547747,-0.35020786592550557,0
19.2,4.125,4.425,12.1,15.85,32.1,64.2,42.075,994.0,253.0,251.0,778.0,916.0,1605.0,3836.0,2331.0,12.0,14.0,15.0,17.0,18.0,13.0,19.0,21.0,0.041886735462791654,-0.29398141251825916,-0.12496085635647372,-0.2340987707046024,-0.32148510910189115,-0.29229023708396024,-0.23581973135022807,-0.5420328518807853,-0.45076607696683746,-0.35249042049001317,-0.32648075994207754,-0.47909883326927755,-0.737190464227691,-0.6752717807167837,-0.6043357711622889,-0.5577821896777011,-0.29810488517607775,-0.4178377625615769,-0.2798834643785134,-0.40378799085066774,-0.25855003541360755,-0.5817590236987392,-0.3318661063206769,-0.6772041993845498,-0.37846792099298326,-0.3492073464456802,-0.20956997732353394,-0.45391655617009463,-0.1292948493086278,-0.3567180251665454,0.016548243900666147,-0.46922088260632,0
27.975,5.225,4.125,10.0,19.875,39.0,70.125,44.7,1763.0,332.0,262.0,684.0,1041.0,1971.0,3619.0,2731.0,17.0,15.0,15.0,16.0,13.0,13.0,11.0,17.0,-0.6245615547484984,-0.3526773280018788,-0.46218673971732427,-0.4753641176869061,-0.6207584400834149,-0.6193499381853758,-0.5149128534563269,-0.5580125961783664,-0.557931903008234,-0.5158124934145883,-0.22518834765435616,-0.42010132327079597,-0.7125055478637243,-0.6710222483645333,-0.43077688034483036,-0.40275260754869907,-0.4068339668562788,-0.5680424273736482,-0.48751139149172973,-0.5139463338173139,-0.41080524912507826,-0.5952266797624548,-0.510583188996866,-0.609081069838363,-0.15163788249391577,-0.10184747966991928,-0.24919523979676436,-0.08267753263126347,-0.4772979116629597,-0.4001465838953448,-0.30660741532078295,-0.2916639751856819,0
24.025,3.95,3.2,8.275,12.925,26.425,57.325,38.225,1584.0,223.0,184.0,499.0,777.0,1441.0,2924.0,2313.0,16.0,11.0,17.0,18.0,15.0,11.0,11.0,18.0,-0.6710333718005842,-0.6266766431375367,-0.5527783514928495,-0.5928912060987376,-0.09694667044422504,-0.47670630300491285,0.04447889934438223,-0.3938317998182061,-0.022422736385384015,-0.37407820983343726,0.1866591837320152,-0.3506982266158338,-0.4659302427695646,-0.4902962360070025,-0.3023959878579074,-0.4987000494221085,-0.33119900577913775,-0.4827234394589669,-0.2626398549795834,-0.2837117775690624,-0.25132453954059913,-0.6925771332483333,-0.3299984742149408,-0.6597515860021714,-0.04495106083342003,-0.606395218653657,-0.04574262874600114,-0.4541479041310617,-0.43410674255132226,-0.47163744498080645,-0.3519900853738492,-0.29649410782331626,0
20.15,3.225,2.675,6.1,6.175,10.975,37.775,21.05,1302.0,195.0,153.0,341.0,388.0,637.0,2259.0,1384.0,19.0,14.0,13.0,17.0,16.0,15.0,18.0,19.0,-0.532323252576147,-0.2684244829471728,-0.33321153778395096,-0.29457178497323727,-0.4975601782048703,-0.331462403049565,-0.28793532008263484,-0.06958690943887115,-0.16034245489679738,-0.6303080258425834,-0.07857014428677254,-0.40740845396156816,-0.2287752914247681,-0.3752387532328122,-0.005766476737952683,-0.35864820127049707,-0.5819709713121044,-0.6522136981689751,-0.09339962542742757,0.06500936667597311,-0.4086637100106738,-0.6949138867669515,-0.3845594460113948,-0.34895421127839454,-0.38039538585456634,-0.37384583435385565,-0.36396582027826774,0.11678483078878985,-0.5694611789554506,-0.4954336531563297,-0.3879049425785321,0.07121062747789722,0
20.725,2.875,3.075,7.075,7.55,6.55,20.35,13.55,1440.0,188.0,205.0,465.0,497.0,362.0,1373.0,941.0,22.0,16.0,18.0,20.0,18.0,15.0,20.0,20.0,-0.6917502297107254,-0.48179724462216705,-0.4873651578332305,-0.3506622458099625,-0.31840550648224,0.002674085751723864,-0.20622403999655184,0.08908106330552035,-0.5911648705639322,-0.5539902697638323,-0.26619453585096436,-0.05228802490268725,-0.6626806807867461,-0.6849618411435293,-0.46562148062198333,-0.06748096824562301,-0.5861057025694554,-0.11293539922845179,0.0009548150341348907,-0.06310354919302923,-0.049509928126997685,-0.07944013192411697,0.08234573502126942,-0.19222761160073149,-0.5878447541344526,-0.19248479592977016,-0.21627342091330828,-0.29308202873531386,-0.6919280580607289,-0.2620153787048089,-0.3246061209994894,-0.32011336857427986,0
24.025,5.675,5.7,11.875,14.325,18.625,45.875,27.625,1672.0,364.0,352.0,712.0,923.0,1153.0,3147.0,1876.0,20.0,16.0,15.0,17.0,20.0,18.0,22.0,18.0,-0.9446134507405392,-0.7405120995358173,-0.5090436517298511,-0.23056527865859258,-0.43281759537007314,-0.3530531406379826,-0.16162075510336782,-0.33421411034600723,-0.4420038266714393,-0.5529827208882918,-0.34513297134762866,-0.5725655728333614,-0.479707279141177,-0.5274373349241742,-0.33710637581445413,-0.42650490957249093,-0.6637113788122116,-0.5521237892865746,-0.16795876924159447,-0.31465977891040664,-0.37381809987247167,-0.48982461631008256,-0.3629725329950949,-0.42536767873873044,-0.6234611147208368,-0.24737518385929136,-0.18912956711031734,-0.10149933905498888,-0.749572324964633,-0.5479045139155251,-0.5669888884345772,-0.4699258735005753,0
22.65,4.675,4.7,8.65,12.775,20.65,72.75,27.925,1630.0,273.0,282.0,494.0,769.0,1023.0,4004.0,1576.0,23.0,14.0,18.0,15.0,16.0,14.0,15.0,13.0,-0.6750015607744722,-0.43281447200020345,-0.35692305157344945,-0.5281692523964925,-0.1802310243995044,-0.10063864411273044,-0.07118797808969268,0.06944260652587576,-0.12463337805047607,-0.36073441690498953,-0.2596077133709643,-0.02418538026917453,-0.31480042971695027,-0.4422505984838175,-0.27723703435925207,-0.4580316814381254,-0.3458021215490569,-0.34174176242537346,-0.22950773019731596,-0.20601971924150006,0.14399006167372597,-0.34165777545488973,-0.16710490742268136,-0.3642867403493202,-0.2257108433671529,-0.015851678928487208,-0.24407314973888816,-0.02192465319514426,-0.21464235885189112,-0.35764274180309086,-0.33229784433216963,-0.45299581081887524,0
23.075,6.45,6.325,8.3,16.8,28.625,72.6,36.325,1442.0,434.0,425.0,513.0,928.0,1394.0,3982.0,1980.0,16.0,18.0,19.0,14.0,18.0,12.0,17.0,17.0,-0.4205711400807658,-0.4742660208715912,-0.1916025713523036,-0.4451609225960673,-0.7490313205649096,-0.5283504010453263,-0.5595932455666421,-0.5333976862737955,-0.6254286846215882,-0.38325592437787775,-0.5800063843668503,-0.5365804279508455,-0.4660736944299267,-0.5256972561164763,-0.413724898632136,-0.6395232341122477,-0.3204082596277111,-0.35956243720381426,-0.3717449088082842,-0.4594574991603662,-0.17768557875133725,-0.37779076627604324,-0.3522668128966071,-0.3849194875915047,-0.18492634960946894,0.09899018300495954,-0.19404478577752263,-0.04450045726108384,-0.20814459979400718,-0.4159809831686602,-0.2583556833363444,-0.4629600141916622,0
15.8,3.85,5.05,6.65,8.55,14.45,44.8,22.775,1076.0,234.0,295.0,394.0,544.0,731.0,2606.0,1499.0,22.0,17.0,16.0,16.0,17.0,12.0,16.0,18.0,-0.7285200497096757,-0.47278352860279055,-0.24496113928769392,-0.11881068361876294,-0.4144791875591286,-0.414394546751626,-0.18072891218512993,-0.27097823115171477,-0.34054755825824146,-0.21838547054055618,-0.15283727173101663,-0.3357248790561798,-0.3021292999830365,-0.23291121096827216,-0.2548302479484463,-0.08169246472261972,-0.2769758281550956,-0.3829333019245713,-0.15546495925029993,-0.15752430592011846,0.0718705735549824,-0.44994537740064017,-0.1495315110167357,-0.03968198667090015,-0.3526488223365042,-0.3112024233722709,-0.11842053580503999,-0.05381849240313689,-0.5646839976934838,-0.31544993670148846,-0.11025212257169105,-0.12043171289159388,0
17.875,2.85,3.95,6.675,8.1,10.35,37.875,16.35,1248.0,172.0,251.0,457.0,542.0,541.0,2343.0,1132.0,23.0,10.0,16.0,20.0,19.0,12.0,17.0,17.0,-0.793973261389234,-0.6510037088179188,-0.41132007320205444,-0.3769777050950417,-0.1661519100806787,-0.19687525991950294,0.23103546941110936,-0.08361657505799241,-0.2929548515260784,-0.29196031656001503,-0.05890654506649393,-0.3069800920936155,-0.5271468561966877,-0.5470783775829565,-0.31806610941976926,-0.2637213931560098,-0.6738529542220105,-0.3712157241022564,-0.17688230956647594,0.058301061007795675,-0.0587874264557232,-0.43555857417884997,-0.25211075082677936,-0.43793689746892767,-0.4882252180609601,-0.4158908034066509,-0.3709690027194572,-0.3118759072102999,-0.6470362410073147,-0.14862856422144158,0.12465646798121996,-0.019412256193675124,0
12.725,3.625,4.425,8.525,7.825,12.55,44.225,17.35,882.0,224.0,279.0,571.0,539.0,668.0,2760.0,1098.0,20.0,11.0,13.0,18.0,18.0,16.0,20.0,16.0,-0.7949478475634887,-0.5868701105387639,-0.3329642357394029,-0.17515454065793923,-0.28932179020205745,-0.13242207072654377,-0.21646443289733372,-0.1388921870576781,-0.36646825902760843,-0.07172741913151519,-0.27033558546324604,-0.10621520688720461,-0.5712738895563031,-0.4684378107302302,-0.4860128443573965,-0.406133333130913,-0.6017426768173099,-0.3752115518312214,-0.28235629651048966,-0.23115377327206138,-0.3188443460796412,-0.4420167411919842,-0.4630279329513123,-0.5516683047355598,-0.49462069559098754,-0.3989537212504699,-0.3841833524364518,-0.3880630183573491,-0.5340395011825332,-0.5208043504121214,-0.5125688365480926,-0.5196401480527889,0
12.8,4.475,4.475,7.1,7.65,10.725,48.325,15.9,949.0,310.0,258.0,451.0,501.0,639.0,3225.0,1142.0,19.0,20.0,13.0,16.0,17.0,13.0,19.0,19.0,-0.748876007123462,-0.5757414786480318,-0.03531550801976881,-0.12652107886698477,-0.50169430835276,-0.009279955846450633,-0.07804452063701774,-0.14617748108586562,-0.3102870636412346,0.006622478852553257,-0.19244335556972872,-0.03281867849770616,-0.5224233632646381,-0.3273700004514226,-0.20219045942153563,-0.1110885313532875,-0.5203840209245103,-0.3201641174080402,-0.045981405564609064,-0.04439087229201449,-0.45090521404852807,-0.5579689902644814,-0.35950804231039185,-0.47860332745225803,-0.7675599453013859,-0.51752370731807,-0.3371678585416838,-0.343805096756901,-0.742056759749455,-0.5313206893044863,-0.45400739155486247,-0.40030007070332724,0
15.975,3.775,4.075,7.675,10.0,12.6,55.775,15.425,1159.0,231.0,252.0,503.0,587.0,810.0,3558.0,1023.0,24.0,14.0,17.0,11.0,17.0,21.0,18.0,16.0,-0.6502388585953993,-0.36143095064556074,-0.25075912748801954,-0.3093822402072268,-0.1380009055948501,0.04117207638571493,-0.2926615799970826,-0.004300485518577334,-0.2080691642210727,-0.24101847046468894,-0.3451820123884108,-0.049665164589705046,-0.6099038188147813,-0.43706951556188645,-0.5654958950894985,-0.501364475541612,-0.0413620001000699,-0.3271250014762176,0.17690880926770597,-0.33262673658552944,-0.567638803914532,-0.5717807911515118,-0.2869587616714651,-0.34081826272031485,-0.7397365571754075,-0.5790136597996299,-0.4976950763056414,-0.36908910011624213,-0.6395633533337077,-0.4997508855378958,-0.4385277083755411,-0.3415958846392132,0
20.35,4.25,4.25,7.525,14.025,19.1,50.25,21.2,1434.0,281.0,286.0,418.0,940.0,1173.0,2901.0,1338.0,19.0,21.0,17.0,12.0,19.0,15.0,16.0,19.0,-0.5604950224023707,-0.5525159134346466,-0.23963068325504816,-0.45057271609012184,-0.5923319831228107,-0.46825232224282953,-0.3481879601666558,-0.28040366024066593,-0.44684933987205355,-0.303063642549535,-0.2366291003783172,-0.22127549191678875,-0.21172092094879313,-0.2701581503188066,-0.4063749205634762,-0.3423542817242593,-0.62643358757997,-0.4145420477015301,-0.20345980471765382,-0.2577102770538804,-0.3116454840381025,-0.23529093247508195,-0.21512300549891486,-0.30788508311920637,-0.10595954444916786,-0.37070056121601175,-0.12332004226828469,-0.30373845118733167,-0.39363631217445555,-0.22183625257982761,-0.14438780549260816,-0.12514193319365993,0
20.925,6.475,6.975,14.65,18.6,31.15,75.2,44.85,1411.0,362.0,416.0,939.0,1104.0,1854.0,4101.0,2892.0,21.0,16.0,17.0,18.0,17.0,18.0,19.0,20.0,-0.6666706206518345,-0.5343202855929123,-0.4273904406665038,-0.3977953888645734,-0.2728083976331067,-0.48375695112770156,-0.21135254634561998,-0.3498221749498692,-0.2965559034345875,-0.19889249163266584,-0.29156211468601145,-0.3501356726822464,-0.3035274879419372,0.23658296084246322,-0.2195342092995596,-0.41237654065006457,-0.3526249917123699,-0.5406398677909976,-0.26003380762164047,-0.4366125179718756,-0.30277821359319446,-0.518662335781133,-0.2470851702999751,-0.44710503233855015,-0.2431169942924878,-0.3623452404585702,-0.08085609474357834,-0.18058796193075194,-0.5914236741410116,-0.4203192992662835,-0.19528251014489664,-0.2448790176029464,0
19.925,6.125,4.85,14.675,17.0,34.65,77.05,48.925,1272.0,369.0,302.0,918.0,1108.0,1999.0,5129.0,3464.0,14.0,14.0,13.0,19.0,15.0,16.0,19.0,19.0,-0.3661318924792737,-0.4985522990072944,-0.3899438456218435,-0.3126142370491793,-0.4405629920442612,-0.44183114021571124,-0.36240016351556326,-0.43608518505665805,-0.30590606736151293,-0.4143036423227644,-0.1896892596488673,-0.45481450456485695,-0.6592840089910119,-0.5383233400987262,-0.273696825192543,-0.2704687353352079,-0.45529418729417376,-0.4449801696943981,-0.18490141609185526,-0.46987159280920665,-0.2808368590015534,-0.41075629615875126,-0.25068240843089556,-0.3447011891510385,-0.6458948764685262,-0.15805848171670303,0.11935379958645091,-0.03668207449906388,-0.8242710802129934,-0.660874955493712,-0.40720322191038905,-0.44424154674939287,0
26.175,8.725,6.075,13.55,20.2,39.875,74.025,42.175,1670.0,604.0,386.0,845.0,1235.0,2243.0,4714.0,2717.0,17.0,20.0,18.0,17.0,13.0,15.0,20.0,18.0,-0.6028987557075084,-0.3428910080177873,-0.35726128911975147,-0.09501177974083669,-0.4220202677346475,-0.3125541212279494,-0.17886160608845383,-0.5459123350382385,-0.2569110563530952,-0.19039726318809502,-0.05263136767825259,-0.626585500616475,-0.4370286575264738,-0.5222446326279014,-0.32127011448014187,-0.5522993558491621,-0.47640066868494224,-0.5966558392748808,-0.37806226191178,-0.663426585997664,-0.5730533859176377,-0.6627933476007447,-0.5983693542696672,-0.6310071226669288,-0.4136004642158743,0.1268434164918036,0.035001084990850403,-0.27324844776859253,-0.7307580637772751,-0.5571840014491841,-0.6431189744155735,-0.48897669950884165,0
29.9,8.125,5.5,12.6,15.85,27.175,73.625,30.1,1803.0,512.0,359.0,761.0,959.0,1486.0,3497.0,1790.0,18.0,19.0,17.0,15.0,16.0,14.0,10.0,14.0,-0.4784571465373278,-0.6051810350725876,-0.35779584724596514,-0.4666364674321399,-0.4178675602104196,-0.3172596343308473,-0.23907590840351634,-0.3365003617729242,-0.5333936503897667,-0.5561428149146843,-0.26683353643939967,-0.3238461230592888,-0.3026113823310891,-0.20269761091034713,-0.2199827261167526,-0.347058065715325,-0.4298954210454685,-0.4604911624453416,-0.4482800989429589,-0.41614148861983724,-0.19021765947046376,-0.3488313662724032,-0.436658339822689,-0.4453988468129826,-0.01607998750897096,-0.07446929462540211,-0.125198983740092,-0.15958857414450808,-0.2073094528137991,-0.27826309287314865,-0.27695804406475877,-0.34153519170361146,0
27.2,11.675,5.9,7.775,20.35,35.9,76.175,39.3,1651.0,674.0,364.0,429.0,1256.0,2095.0,3897.0,2358.0,17.0,21.0,17.0,13.0,19.0,19.0,19.0,15.0,-0.45743975449906144,-0.4892659471428079,-0.32810596169798234,-0.4933885956447152,-0.33513378114034764,-0.12379543871344756,-0.533162629521893,-0.20072902919229157,-0.1713889142638779,-0.3599395029397493,0.026640481096890906,-0.10186770744630491,-0.024196676103265268,-0.23562589534274014,-0.18971756602876727,0.0956093887053482,-0.5400871350230653,-0.2177049782789944,-0.4110096101460943,-0.20738741834449045,-0.4433565488951379,-0.07956251994405965,-0.48644029624640445,-0.4381076957141415,-0.16719102600726085,-0.319426826468668,-0.16077776533632382,-0.40964549881235734,-0.362064658074305,-0.08193497988396381,-0.26827514074353853,-0.057704747228723936,0
35.675,17.0,6.975,11.825,23.175,35.7,72.1,51.75,2470.0,1068.0,475.0,744.0,1579.0,2270.0,4675.0,3452.0,18.0,19.0,15.0,20.0,19.0,15.0,19.0,19.0,-0.8455625316528985,-0.5599530708498517,-0.5932578870456545,-0.35488097862771445,-0.33021449754212306,0.011844647898237363,-0.33615581377956855,-0.26401559832518473,-0.4375949854879434,-0.031932985919306135,0.11786752191023459,-0.13282379738421146,-0.567513344481647,-0.3062462571863914,-0.44730126147052657,-0.38557056235435433,-0.8742887056321659,-0.5444023994124584,-0.32215165207879237,-0.08408606132195354,-0.6090645548451893,-0.34932704406552,-0.3944413515227515,-0.3443053529734563,-0.4798009214475046,-0.16957868496933054,-0.14007664503893405,0.09174027004507533,-0.47907308199580845,-0.033202374184117624,0.11090850177779056,-0.022540636752277153,0
28.65,15.0,6.6,10.65,16.675,38.1,79.025,46.775,1782.0,789.0,472.0,730.0,1046.0,2110.0,4395.0,3142.0,13.0,17.0,18.0,19.0,17.0,15.0,16.0,18.0,-0.5403283738244191,-0.46795504318143566,-0.3467881763183102,-0.27792445105277624,-0.14157494392248005,-0.08234405403197328,-0.4590369642967733,-0.13525209003285735,-0.5470215860959775,-0.263550742843573,-0.4650804085637503,-0.34072298306291154,-0.7213808958036587,-0.4858012409578237,-0.7102899790209702,-0.4241462524386405,-0.44534352222702517,-0.38292354455448824,-0.5197645695733254,-0.4319016896479205,-0.3126872222110259,-0.5073080069097107,-0.40005334673138015,-0.37448269433329906,-0.44450722382448354,-0.23783677273956869,-0.5146975883339311,-0.4219115202458897,-0.600922992159221,-0.4502462454325158,-0.2894783764823834,-0.2221152887705049,0
28.15,15.0,7.575,13.85,16.6,37.175,67.775,38.95,1801.0,832.0,498.0,886.0,839.0,1886.0,3405.0,2342.0,14.0,19.0,19.0,14.0,15.0,15.0,15.0,19.0,-0.6306630296209702,-0.6328169191119012,-0.42862120203423526,-0.3002330982488987,-0.4274492514623003,-0.4197984435575305,-0.4834005716578562,-0.3708160043114305,-0.47515014229643115,-0.11317828292731201,0.02142742142320448,-0.21795577176298409,-0.43857280054463443,-0.5844605913235094,-0.4108630637596689,-0.6261540223193489,-0.3709917032639056,-0.31856448337954335,-0.5966623574512258,-0.5190084347885371,-0.30023775146467535,-0.5149903476132807,-0.4478793393534303,-0.6278440394732708,-0.03695520818952867,0.02737223235489092,-0.05905716971709964,-0.015823946790299873,-0.4056957537126542,-0.2932394638859952,-0.1878433178357015,-0.12286975299741588,0
28.6,5.225,4.225,9.4,14.25,23.375,45.275,30.875,1934.0,346.0,265.0,601.0,970.0,1446.0,2625.0,1949.0,21.0,15.0,16.0,16.0,18.0,19.0,20.0,18.0,-0.7204879995057348,-0.5821791266645442,-0.1658143447185057,-0.28849324261191683,-0.6890685512646173,-0.5653573512038892,-0.5068207127726146,-0.2023532239755329,-0.3412946718088416,0.022998546045608536,-0.17175604561983904,-0.19845036912369446,-0.36375253351223785,-0.18291279580038558,-0.39457481239283465,-0.3076501291149644,-0.6347911979925608,-0.44486977621818324,-0.5628152637352333,-0.44797086766668587,-0.612138976035272,-0.3763624524539559,-0.6177085780573087,-0.506018800662787,-0.30315046955447045,-0.15099963983520803,-0.18254674373190288,-0.16767483701041894,-0.5641188727423296,-0.46484101532457495,-0.15218509289204107,-0.06775011593036197,0
33.4,5.8,5.25,9.775,11.875,28.1,59.725,34.1,2171.0,374.0,353.0,600.0,709.0,1428.0,3519.0,2155.0,19.0,19.0,20.0,19.0,15.0,12.0,20.0,17.0,-0.5974288858604775,-0.49073986942830744,-0.1912775598134316,-0.014339912316834645,-0.39683010624683074,-0.16884304486215834,0.24480752083394658,0.03749570449831486,-0.3409053026299717,-0.05754055827123339,0.12242970232064362,-0.09406736813358453,-0.51919202591266,-0.8161550263031717,-0.42636361051446364,-0.5677489755402093,-0.3143473029911277,-0.5214519452422289,-0.43776049687834334,-0.2998437507719519,-0.37356870656761587,-0.6276845416366482,-0.549156219932323,-0.48853641321628305,-0.323974688705232,-0.43574563036447395,-0.2621987835248385,-0.35119963743372107,-0.3269948203720106,-0.155499736352982,-0.13511844463374323,-0.24341423203481488,0
24.075,5.0,6.0,10.65,10.7,25.075,58.95,34.225,1629.0,317.0,414.0,705.0,687.0,1566.0,3591.0,2388.0,22.0,15.0,17.0,17.0,18.0,16.0,14.0,21.0,-0.7876633798673685,-0.601367008451715,-0.290543033714414,-0.19423732004727745,-0.25742559078433097,-0.38981843170713704,-0.06210172139412341,-0.15922737947391094,-0.6104722538681187,-0.4075771879383767,-0.5552116483300685,-0.3298779315499961,-0.6546776368407471,-0.5662962767311865,-0.5959300640442943,-0.5209079458699225,-0.4408207104593963,-0.4275137212471916,-0.47920811915467004,0.0330009980562016,-0.45401739858198265,-0.5159831207714368,-0.6491695843481646,-0.1464020174773675,-0.3609453810908133,-0.358333691253915,-0.19716826977511048,-0.23145426062440314,-0.6790418252081215,-0.4432480357637682,-0.46523948060216974,-0.2288458317688714,0
24.15,4.125,3.875,10.55,9.55,22.5,52.2,23.125,1577.0,222.0,233.0,629.0,571.0,1179.0,2981.0,1586.0,17.0,13.0,18.0,13.0,15.0,13.0,14.0,17.0,-0.7803927607798824,-0.6076006311171434,-0.6144405605527523,-0.3586069788891431,-0.02877761614022534,-0.08037101346779969,-0.46520075692091306,-0.14103922167236185,-0.5324970887349672,-0.4463709097643561,-0.41939328683808685,-0.41279214947156256,-0.6929533402580801,-0.7462016575890791,-0.6779144865709985,-0.7136579753404015,-0.45644057952561823,-0.2799888595656105,-0.5677679257745782,-0.39054940753694284,-0.3229599492519502,-0.42207545282596665,-0.5533619210557315,-0.42641392286636254,-0.3780647442947226,-0.39908688452678365,-0.5006491950614734,-0.39147252294390117,-0.6110240632555616,-0.5346089142333409,-0.4630205011738153,-0.4716488738021644,0
16.775,4.35,4.15,10.35,9.325,16.9,48.75,23.025,1043.0,272.0,282.0,614.0,534.0,926.0,2801.0,1552.0,17.0,20.0,14.0,18.0,18.0,12.0,15.0,20.0,-0.35740993080490485,-0.4039525894540198,-0.28816419184170705,-0.23942219892921987,-0.34507015637971933,-0.01485196824898176,-0.3840997563170136,-0.40089438933453153,-0.5420212242216318,-0.4291897266010531,-0.5351518544740053,-0.5734910745426581,-0.4725698663228437,-0.49372110822982246,-0.393116629785617,-0.513122969652447,-0.3081793021928868,-0.4064225182126566,-0.1727276389229511,-0.2647823696487867,-0.08661493099041213,-0.3988442436873656,-0.37198794315901024,-0.3206071235013908,-0.25987409102321013,-0.3168878322145643,-0.5672655114205924,-0.04530743242889701,-0.5052079295815636,-0.44328336319566486,-0.35407426161924266,-0.41223924017312225,0
23.15,3.825,3.625,8.35,10.575,16.375,49.1,22.025,1551.0,229.0,224.0,545.0,620.0,891.0,2709.0,1290.0,21.0,12.0,11.0,16.0,15.0,14.0,14.0,17.0,-0.619188019938715,-0.37912133222839184,-0.43755594531066866,-0.22835336302602302,-0.2952800714084244,-0.25988834545969447,-0.3544590436135827,-0.2461776554336294,-0.2562072644171914,-0.19719788829565707,-0.3727503431868222,-0.22457460182760897,-0.30594940559203393,-0.2202572177252749,-0.2235887412422399,-0.40447627108408124,-0.19971549246672246,-0.25625078179424576,-0.06969171471058487,-0.4486817474807016,-0.018273802848884167,-0.09912502222308109,-0.22147210500692666,-0.33928314073534743,-0.30901402718631965,-0.4393251289437922,-0.33336457098184197,-0.36486111066986043,-0.16614169734548834,-0.33759121577758827,-0.11157822364861825,-0.42150334344396917,0
27.7,2.9,3.475,8.8,9.075,16.325,52.85,22.075,1870.0,179.0,166.0,548.0,598.0,948.0,3445.0,1449.0,19.0,16.0,11.0,15.0,21.0,18.0,22.0,19.0,-0.8679961508826884,-0.6471149976579592,-0.6580979480836079,-0.44970257994619633,-0.41357787692345277,-0.27051326904116046,-0.2683991914536847,-0.34432654008617625,-0.015980699283881388,-0.25138761276589605,-0.36892566126881166,-0.10796046889697072,-0.44864690422008213,-0.3303768110286129,-0.25278705077926733,-0.28703276360346974,-0.31235709203591905,-0.24068831566970741,-0.23459373800232045,-0.45951389371795676,-0.28050683170954255,-0.2214394864852954,-0.29683816296716276,-0.47862647109413703,-0.5586860499933525,-0.3695215954723713,-0.3698536900937422,-0.06308642523541444,-0.5737154255512114,-0.3831119101489281,-0.25425812361489175,-0.4265465502824271,0
26.025,3.575,4.45,10.0,13.05,20.2,48.75,25.5,1784.0,177.0,266.0,593.0,857.0,1013.0,2733.0,1730.0,16.0,15.0,17.0,17.0,15.0,13.0,15.0,18.0,-0.753084382894695,-0.43282090969801024,-0.3889383930999301,-0.3972390096432588,-0.10906703802614612,-0.31698955765341696,-0.3068182467193064,-0.14069293221964663,-0.2518415074908509,-0.46393133976187745,-0.2283033585398064,-0.3581102822762919,-0.42520762292688014,-0.47430871888281756,-0.24774114439834383,-0.3046258260214294,-0.6140702596895069,-0.5182353844994455,-0.5281672203696133,-0.37759068832895953,-0.021920645217932737,-0.08419702931753602,-0.2456098445525675,-0.2473652704399133,-0.2801223576144014,-0.15607310557468873,-0.17426007314830871,-0.04297862803451719,-0.5885790945588445,-0.33636457790466257,-0.24637372086538822,-0.21816588812452875,0
20.025,3.3,4.525,11.625,9.85,17.1,54.675,21.35,1410.0,171.0,286.0,728.0,650.0,936.0,3421.0,1250.0,21.0,13.0,17.0,18.0,15.0,17.0,19.0,16.0,-0.5928324437163021,-0.0909708982349645,0.030042302902542534,-0.2176930989919505,-0.14450083334208005,-0.14230835427083877,-0.32227279161794475,0.016108039544715576,-0.3431529328451815,-0.4073773411057058,-0.279698408770783,-0.16838597808961756,-0.4252311910578639,-0.45609128608481336,-0.23240231942748737,-0.3402619582612619,-0.4928922695920412,-0.11371290753297413,-0.15234107343010836,-0.27017733900381913,-0.13364695843432625,-0.07083419905570451,-0.01746509267437386,0.01642064016575802,-0.4225905552216795,-0.49406154187103984,-0.19323537888489595,-0.34971872616791494,-0.32381005952396263,-0.4505284234735714,-0.23191294001727344,-0.29317009373632325,0
21.0,3.325,3.125,6.75,8.85,17.775,50.825,21.175,1343.0,184.0,167.0,426.0,580.0,1128.0,3256.0,1402.0,13.0,15.0,11.0,15.0,18.0,20.0,20.0,16.0,-0.5384397325054456,-0.2680418777563293,-0.14006278048138882,-0.310515256501459,-0.3235451787311724,-0.5066958539060925,-0.4718967008307864,-0.20230993081991522,-0.022737876813758794,-0.3163907391633495,-0.25782147797686644,-0.13159256328953353,-0.45790931623688247,-0.39869260118040456,-0.285050148274888,-0.20107933023701868,-0.599639105804584,-0.4576183414893006,-0.2011910617427666,-0.018847675655654674,-0.49679549814883645,-0.4487517124819366,-0.40830880731043256,-0.2663668840988783,-0.47768346225329267,-0.3814328189979448,-0.2931888116286882,-0.29718909767879353,-0.43966798737227203,-0.2153041692989573,-0.14039063261584167,-0.3605231134977201,0
24.3,2.65,2.525,5.7,10.725,14.35,40.475,13.325,1782.0,163.0,163.0,389.0,701.0,906.0,2128.0,846.0,21.0,17.0,14.0,18.0,23.0,18.0,14.0,16.0,-0.7913493076667708,-0.29194528209834286,-0.20596224926614853,-0.2882943588757563,-0.5419810728947345,-0.32660258356152894,-0.07554516598742926,0.17207314142436755,-0.4404548320413068,-0.13930413069359102,-0.3610739614134094,-0.1258844107532062,-0.6403873413528303,-0.4699324625126214,-0.27576062670901924,-0.5427787856864865,-0.7413903564907572,-0.6662729139061754,-0.3586574161840127,-0.20704798864578702,-0.40754490692970813,-0.09758189862846067,-0.41669684041702215,-0.5347107371287454,-0.16454660399119148,-0.29642358797512913,-0.3393779751236382,-0.3123057845729274,-0.18820065333644037,-0.0142011023798745,0.23106182671495598,-0.2551592908087829,0
21.625,3.275,3.05,6.375,9.15,16.875,37.775,8.375,1488.0,211.0,178.0,345.0,551.0,783.0,1972.0,432.0,17.0,17.0,17.0,17.0,17.0,14.0,12.0,12.0,-0.5899098604180265,-0.2561361531194878,-0.29855240050054477,-0.19639852218814716,-0.4482995175802937,-0.5317383339488557,-0.21970096485749724,-0.26536916961765933,-0.2880319624663789,-0.2388204776690823,-0.41852092697518306,-0.08871152889901265,-0.08756676413961605,-0.2132476957048886,0.011418012963343249,-0.1681935792822667,-0.49946998595081693,-0.46858173535292014,-0.3006526488593179,-0.2447666174631716,0.03699601043737787,-0.1275484669782802,-0.2444719204814358,-0.422142142067641,0.03264283812536419,-0.43510592344156,-0.16492537447293731,-0.33242423450446396,0.16222648762416061,-0.33435560514619933,0.044189058076706214,-0.2997886746960761,0
16.425,3.15,3.025,7.05,10.275,16.425,37.125,12.425,901.0,196.0,165.0,455.0,634.0,866.0,1841.0,678.0,11.0,16.0,8.0,18.0,19.0,15.0,16.0,13.0,-0.29754152338778783,-0.1921646054205933,-0.3147363488179593,-0.409846948708734,-0.6577819092561524,-0.5251726998665629,-0.264473206539084,-0.21371665089591962,-0.10195276546482998,-0.38022801249386207,-0.2164274946877359,-0.3293894055754544,-0.2857015944157696,-0.5007535112209444,-0.09770258373612323,-0.363498215626295,-0.37617184463458814,-0.19049152642827694,-0.40763253387320586,-0.3911103916894669,-0.13097198979140087,-0.23936802998144993,-0.27187833841011777,-0.2888473299679402,-0.014423537690841655,-0.3327033700306254,-0.2481954200267282,-0.2631517529692785,-0.16033383025813275,-0.24150980532027358,-0.20687406299314187,-0.34761612588626917,0
20.925,2.65,3.275,8.5,8.525,16.575,44.6,18.25,1402.0,139.0,188.0,566.0,582.0,1095.0,2811.0,1066.0,16.0,11.0,10.0,19.0,20.0,15.0,16.0,19.0,-0.5485156223930648,-0.3327279888455919,-0.3067772794602938,-0.2527718632343755,-0.00900563797379187,-0.2538158686226065,-0.34990756559266417,0.08236247187708579,-0.25663913362512814,-0.3026249428008473,-0.4147609965748927,-0.3265879110300674,-0.5346021373334522,-0.3836160921068277,-0.4556450258557984,-0.31399425709306034,-0.5799499352163341,-0.36580956260899755,-0.42754533537656025,-0.3805367254225083,-0.37265776050653243,-0.33156024932444306,-0.23400198653143398,-0.4523111007064862,-0.5413219603860309,-0.40797409582049576,-0.23270760359463508,-0.20435567109290675,-0.22862956299459902,-0.4107257238470577,-0.16838360468961827,-0.3444623516496983,0
28.875,2.65,2.875,7.15,6.825,11.675,30.8,13.825,1893.0,142.0,152.0,450.0,440.0,801.0,1812.0,919.0,18.0,14.0,11.0,16.0,16.0,20.0,18.0,20.0,-0.6322696694245913,-0.29863253706807075,-0.26635888740458086,-0.2538826058772673,-0.2732101910268312,-0.09340560035743396,-0.26308147791375064,-0.1969408311755344,-0.12124838852819529,-0.1401421758552733,-0.28762208162975134,-0.43528688567446133,-0.32250998131544995,-0.3740382495882744,-0.18674873125898686,-0.21409935756605206,-0.4882338164629032,-0.19117487842597253,-0.3485818074378365,-0.3583560063091898,-0.5957179141059642,-0.2085424360057107,-0.14851711274271268,-0.222062984948377,-0.3488848735984516,-0.41170916685549036,-0.1889433135500522,-0.1253467304689183,-0.4308409888535505,-0.3125713719525144,0.016091094542622277,0.16041730774840635,0
19.9,3.0,3.75,6.975,7.95,10.55,44.45,16.05,1367.0,195.0,215.0,460.0,561.0,655.0,2584.0,997.0,19.0,15.0,17.0,18.0,19.0,18.0,18.0,21.0,-0.7137172599748745,-0.18108461452780192,0.16556419921633778,0.0662530227101661,-0.4342777339510855,-0.08570455571459906,-0.2535294534976208,-0.16781235727357097,-0.32310737699344017,-0.19028885796033052,-0.3182005969624108,-0.40768687308973794,-0.5225755538356897,-0.28522266929957946,-0.1994403312965984,-0.14063831691604836,-0.6896741569457723,-0.4389229058689946,-0.1918242609449095,-0.014521462330279714,-0.37755443727087734,-0.3580750299983196,-0.3328850035633272,-0.28280098700954326,-0.5525682198777011,-0.5790893176787305,-0.3815567854185566,-0.46471734408285514,-0.4726675506411108,-0.3061400089013382,-0.2108037084545824,-0.1789674190953296,0
15.575,2.425,2.95,6.55,6.675,10.775,41.6,13.775,1038.0,153.0,175.0,431.0,462.0,661.0,2226.0,866.0,20.0,17.0,16.0,16.0,19.0,16.0,15.0,18.0,-0.5381060414179325,-0.18842183418201108,-0.1084945554111913,-0.08716718545723609,-0.2875049737268824,-0.1020181096498368,-0.2703967695704279,-0.1679219739165736,-0.3918225479552445,-0.166697019203833,-0.4512386750426109,-0.42424559597624223,-0.6790990609308939,-0.5951256874182946,-0.398818027788642,-0.3951758957119131,-0.5641905910575471,-0.18826341526752532,0.008018105070825742,0.19655159961443058,-0.18859140864858312,-0.0889332313407201,-0.11212023997548591,0.17466474788496367,-0.17299189825394734,-0.5324613969018315,-0.22369998749352724,-0.611256067569011,-0.5030190736242489,-0.45424672809910677,-0.4129716824760483,-0.5907619071481213,0
21.425,2.65,2.6,6.05,6.675,14.475,38.7,13.0,1304.0,159.0,155.0,383.0,430.0,865.0,2100.0,885.0,18.0,16.0,12.0,17.0,16.0,21.0,17.0,15.0,-0.37073102289559123,-0.21877639449199388,-0.21831014071553204,-0.21289783072281196,-0.33724910909524963,-0.37177577757883157,-0.19909487731382514,-0.1463044678605267,-0.160361408068239,-0.09610165711242277,-0.32129231626983495,-0.11201353843616756,-0.7420644905076447,-0.7475264183486461,-0.4658346794269117,-0.21706098666609408,-0.4130804705523477,-0.34307912397696544,-0.11074453399479203,-0.19243785127542945,-0.32206146945485997,-0.16338524961318313,-0.12007766281212041,-0.32810659846070545,-0.23805545606543604,-0.19954620604288564,-0.34424743678447767,-0.4077176286455294,-0.45367258015742024,-0.09510287049863167,-0.1279695228328737,-0.3532571980514524,0
17.85,2.775,2.975,7.8,8.6,14.25,38.925,14.025,1133.0,157.0,176.0,470.0,533.0,753.0,2134.0,757.0,19.0,10.0,14.0,16.0,17.0,12.0,12.0,14.0,-0.48535380190962196,-0.47742204809840305,-0.43754297821957766,-0.4400645505487072,-0.1913056169670185,0.07016565622950315,-0.020374059706731094,-0.19568984970599737,-0.2595038896609261,-0.2768317154440101,-0.2558412671952197,-0.19266859669390288,-0.35194189453031005,-0.4036461997753732,-0.2826532581931023,-0.3430294059222982,-0.1470683817672438,-0.4890476092527405,-0.14322361551144097,-0.22364118407357475,-0.14048339132243673,0.21698615861291737,-0.08240111300575426,-0.3193151358496893,-0.22393806309527978,-0.2778062622493383,-0.33458005582002265,-0.18182530784048043,0.04439295432748016,-0.4214851854628691,-0.14052572130663338,-0.10828892100482503,0
17.7,2.825,3.175,8.3,8.6,12.6,35.7,18.875,1075.0,145.0,174.0,539.0,505.0,741.0,1988.0,1178.0,17.0,12.0,13.0,17.0,15.0,13.0,14.0,18.0,-0.25075707874568104,-0.16273081017695856,0.06693026285524145,-0.15647810689461575,0.06320797981703664,-0.14987627499595313,0.05710555203234358,-0.27297630298568726,-0.07224898912664542,-0.33408371595996134,-0.367418896855688,0.011627138169707976,-0.5929350971724304,-0.41619489707351665,-0.2818914411979245,-0.11012785669957953,-0.30202704284670323,-0.33100352199875066,-0.2586077381236427,-0.23039156027572488,-0.07677151605277745,0.17850537581509873,-0.13600793694380967,-0.26870325916897986,-0.06827221455585758,-0.20442950414327088,-0.09970422273080591,-0.28762710449158363,-0.25775177781237435,-0.1347515085298819,0.04162225260501418,-0.16028648119462963,0
20.4,2.375,2.75,6.5,8.775,11.425,36.25,20.075,1317.0,123.0,174.0,446.0,575.0,572.0,2202.0,1249.0,15.0,12.0,14.0,17.0,16.0,13.0,19.0,19.0,-0.6179365664202644,-0.5151344773816748,-0.6139314489332628,-0.42821955017933155,-0.01302161244572909,-0.38704895987163984,-0.09541810609682357,-0.2148994708641938,-0.20413642665872994,-0.08268103450990075,-0.16475448840867102,-0.0986240692059296,-0.44485279993232385,-0.17353760598390527,-0.31894731829293277,-0.04790348481657453,-0.5418071709069516,-0.0527877815486086,-0.3675258684584316,-0.38470480394717693,0.054674721844390484,0.07745117366331349,-0.2485766588943013,-0.09832098389181507,-0.24541130128036087,0.0210796891280878,-0.17456002747328347,-0.0607593825439434,-0.4107249208388446,-0.19128098370476124,-0.09074142364990556,-0.13413551031421025,0
21.15,2.475,2.85,6.525,8.4,11.425,39.95,16.625,1407.0,146.0,195.0,465.0,556.0,676.0,2701.0,1154.0,21.0,13.0,13.0,21.0,22.0,15.0,18.0,22.0,-0.7667350517411884,-0.5729094699253147,-0.5328188309456504,-0.1797306271424218,-0.04942656709060718,-0.44548658576720296,0.1689957032405554,-0.1804867509404724,-0.3177244139240656,-0.41674611468820816,-0.1682987879655248,-0.28179051333227106,-0.8503326565377463,-0.7552642954075216,-0.49638428795945666,-0.3429049270098547,-0.6714190322727218,-0.41896090079857373,-0.2320838790131587,-0.13581602765016193,-0.4027812252298346,-0.4094029564698422,-0.2770663902110637,-0.3951696313939752,-0.6591609507863518,-0.34850763923837297,0.08823307174897412,0.011495240775932962,-0.681145391347047,-0.25165487398405484,0.04216138464668814,-0.10336239741160935,0
17.425,2.675,3.3,6.925,9.85,17.1,41.8,17.075,1235.0,165.0,234.0,513.0,643.0,1028.0,2586.0,1081.0,20.0,14.0,17.0,19.0,19.0,16.0,19.0,13.0,-0.5888275588952808,-0.2651018435719462,0.027721971864453084,0.1315862926998932,-0.3284550676487528,-0.3490832119717106,-0.11893285584092361,-0.11529575067341677,-0.4135557449270246,-0.1737782223566273,-0.11712651952342447,-0.08804854682212128,-0.7014322851856518,-0.4409246083593519,-0.13068061518476254,0.04231327036548713,-0.5855476334136058,-0.3813841635757841,-0.3924351919733646,-0.18338550142046894,-0.12175716545094131,0.04136787839001641,-0.10554113711587475,-0.029069891707577716,-0.3748497967715049,-0.5742739527585531,-0.05271168267575578,-0.3309888643107182,-0.31363057210542855,-0.2640176405114251,0.04104395330947573,-0.054293233326160296,0
17.35,3.275,3.5,7.425,9.5,14.925,37.85,14.85,1200.0,174.0,216.0,426.0,591.0,881.0,2010.0,934.0,22.0,13.0,12.0,15.0,18.0,14.0,13.0,17.0,-0.6164440847682657,-0.2381620769998614,-0.2712058812070332,-0.12862738247892158,-0.05845513926339697,0.15194980556860635,-0.21171586262578568,-0.31141794368600484,-0.20786310236393532,-0.031689089929527785,-0.39727512467757076,-0.258096356013347,-0.13065405403591512,-0.2314580875430909,-0.31409159327934943,-0.19559977944509,-0.33351480607193607,-0.27465049661067403,-0.32218393172164045,-0.29679498782995695,-0.10381457631163112,-0.09168989558885184,-0.27878194133761347,-0.22871516974000475,-0.062017813662240275,-0.523840560767894,-0.0675442477708018,-0.4395873670877383,-0.3229678981127201,-0.24078212932270696,-0.19134474576742583,-0.235539418001401,0
15.875,2.575,2.625,5.2,6.625,12.95,34.725,14.95,1099.0,155.0,168.0,359.0,448.0,785.0,2335.0,955.0,19.0,15.0,19.0,22.0,16.0,16.0,22.0,16.0,-0.6215543313528923,-0.4206319087332082,-0.5008623810646372,-0.20294633125523853,-0.23666737969381807,0.10176038832443583,0.03275892841070658,0.030731974059402457,-0.31783539909265157,-0.044019837278984814,-0.16558886813662527,-0.3193305066268893,-0.3325121882393766,-0.016815972138967912,-0.11580406168313492,-0.3516850759614648,-0.48638794165164184,-0.29561806828122644,-0.3322048659385507,-0.10844913828694272,-0.20007134003539054,-0.1128392594902751,-0.14327997438056123,-0.008492078533401538,-0.7665572957560866,-0.5667925061715228,-0.6048441178002422,-0.36781121758972596,-0.7088863610299729,-0.40683019969656414,-0.4886270589028102,-0.343797303007038,0
22.175,2.625,3.05,5.775,8.925,14.35,45.75,13.4,1542.0,170.0,185.0,409.0,613.0,931.0,2953.0,701.0,22.0,15.0,18.0,22.0,20.0,17.0,17.0,11.0,-0.5487505674185695,-0.40571066129994643,0.041676788847268186,-0.12063753244780967,-0.5624780937347609,-0.26060513192633883,-0.2100904638302012,-0.03479210328770185,-0.46599451519809343,-0.4755831785598998,-0.18495060460622098,-0.1713608489144342,-0.7635511579967803,-0.43161981884755907,-0.30410413674965164,-0.18522156302837775,-0.4948319205060052,-0.44315830322143696,-0.2565245983744535,-0.6877651469576145,-0.5817669069279124,-0.49823016838143463,-0.17057553001660808,-0.3184123171660885,-0.679730598701397,-0.5245382483139391,-0.18907591247938524,0.0031015727588779847,-0.20084139909941642,0.03347993411100225,-0.2220826702461847,-0.09185689938720043,0
18.475,2.575,3.725,8.4,9.15,19.35,48.8,14.825,961.0,164.0,234.0,583.0,533.0,1237.0,3269.0,932.0,13.0,15.0,21.0,18.0,18.0,21.0,20.0,19.0,-0.19453376294713437,-0.48331832593689916,-0.1632586931257563,-0.12270767439762037,-0.40416277080196783,-0.46578261166233004,-0.14616749058189787,-0.1935335692685114,-0.6849107834817273,-0.7573132080385571,-0.3431337441240686,-0.17779657448724703,-0.8273257246559985,-0.6999706026996513,-0.5352392824874634,-0.2286471596774998,-0.48680336859814993,-0.47552664799385164,-0.393344191116104,-0.31098472624718415,-0.518156396877948,-0.4439826970587206,-0.19824638092966865,-0.39767747444214063,-0.7974318741372846,-0.7842011455340988,-0.25725520797902984,-0.21753720107238275,-0.40963339636094176,-0.27585119897893945,-0.22772051959578418,-0.20163837419137126,0
22.575,3.6,2.825,5.95,8.9,16.725,49.6,18.025,1513.0,211.0,196.0,422.0,613.0,1099.0,3155.0,1092.0,18.0,17.0,16.0,18.0,17.0,17.0,17.0,15.0,-0.9213690360013909,-0.7646468921100111,-0.5979907810095156,-0.33153653918850157,-0.4242231817084223,-0.3843599971287061,-0.11736924149942446,-0.16955304838900864,-0.27244820196289343,-0.113605030071065,-0.19752733199237224,-0.16480858790045885,-0.690710266002801,-0.4614481554302247,-0.3960327494896633,-0.25942492416939344,-0.7936748251173434,-0.6720191433458458,-0.5469414813083872,-0.2618255000823372,-0.8151538949967505,-0.8940097520782718,-0.5443276594558907,-0.48151524430141995,-0.6071387635538714,-0.38740948911930645,-0.541138073400889,-0.41936968804494396,-0.5095475732877274,-0.3225167534516054,-0.4761971894261332,-0.2590913198462881,0
