0,1,2,3,4,5,6,7,8,9,10,11,12,13,14,15,16,17,18,19,20,21,22,23,24,25,26,27,28,29,30,31,32,33,34,35,36,37,38,39,40,41,42,43,44,45,46,47,48,49,50,51,52,53,54,55,Gesture
17.025,9.725,4.975,7.675,9.75,4.925,20.9,7.875,1200.0,625.0,316.0,462.0,624.0,286.0,1352.0,525.0,16.0,16.0,17.0,17.0,18.0,14.0,20.0,25.0,-0.6304293228882849,-0.5336323572983689,-0.11295260180275718,-0.10799651027403759,-0.5114789954628806,-0.38337668348584475,-0.1985026864554789,-0.1259146684587789,-0.3949427602290745,-0.1372400491601759,-0.4179738884926155,-0.28201911798521345,-0.22105895998053857,-0.3171259398462129,-0.23460379201684742,0.012707436365975948,-0.5441098610562396,-0.5459265046940432,-0.17710990459029805,-0.05088711341128538,-0.24288416335025922,-0.2114386310387395,-0.1494556113821807,-0.19896539195291588,-0.5532971352718755,-0.2987958523136961,-0.3819698090938035,-0.2749189726958939,-0.5060748306457326,-0.2395705341817751,-0.322968189982284,-0.2553343800760776,0
17.225,8.475,3.675,6.825,9.6,4.9,15.675,9.7,1111.0,539.0,234.0,417.0,642.0,320.0,920.0,658.0,19.0,16.0,16.0,17.0,16.0,17.0,17.0,13.0,-0.39190111501211955,-0.27788309296392544,-0.33237201094436364,0.0038790946924871744,-0.5361862995215744,-0.4054349090643358,-0.4273260027401473,-0.4359607249318939,-0.23737530458279654,-0.4039573565834713,-0.28688913838187724,-0.37663508605117124,-0.4681398414172283,-0.21391383647320017,-0.4389674635911938,-0.2619172532997893,-0.5588686445940442,-0.3210222263704724,-0.17830746746709503,-0.39441999312004705,-0.23450960383851574,-0.12670419314349832,-0.04641978132042566,-0.12599970232211097,-0.28631496038671855,-0.25429368904112865,-0.25789480923402175,0.0052425373654600045,-0.4963098883365834,-0.16254543889732204,-0.3212408074458268,-0.2834725359947697,0
16.7,10.65,4.35,7.9,8.925,4.325,15.675,9.75,1158.0,782.0,284.0,530.0,647.0,278.0,953.0,572.0,21.0,21.0,15.0,20.0,24.0,16.0,16.0,17.0,-0.7333235771628306,-0.6060548385402287,-0.4713320780239644,-0.2855435167679658,-0.71961368964294,-0.5426225667024187,-0.5485734162176168,-0.45363752857540746,-0.7585219713087951,-0.4991427293582203,-0.5315647431925515,-0.3132745775774095,-0.45220320140876513,-0.030218596235411573,-0.22608037190009647,-0.46867926191972775,-0.6829238584061391,-0.24210049529786945,-0.20754444969998523,-0.3344362970708096,-0.5800174964282491,-0.44640933010157763,-0.1965101483395581,-0.1636209789443952,-0.5216421266952294,-0.4704286206201291,-0.3590969174690578,-0.050025470343221544,-0.4544720721443201,-0.42086506541248997,-0.3728444969179535,-0.3384298581200084,0
15.425,9.05,5.75,8.65,9.775,5.45,16.35,8.8,1090.0,592.0,367.0,586.0,703.0,272.0,984.0,604.0,20.0,21.0,18.0,20.0,21.0,11.0,20.0,21.0,-0.7019436702617472,-0.45837190473820566,0.0020042291538476015,-0.028570588449082803,-0.6122627739597808,-0.2960822044558317,-0.3891317517852722,-0.2798690842801625,-0.49504261076482936,-0.27013596025817327,-0.2954984342598189,-0.05536195210125005,-0.46380341443273787,-0.07273444475069432,-0.3078750040955519,-0.2260838338195805,-0.7482678764480858,-0.2504815626582539,0.04691255117547557,-0.0841942906746408,0.1709333737893129,-0.3249666487441587,-0.2714129253010508,-0.1600181216147937,-0.4413640100152543,-0.339348600061363,-0.2788336958184262,-0.4212097990322713,-0.4804689970748733,-0.24190898845899114,-0.26385265198174707,-0.39600065602910545,0
16.25,11.425,5.15,6.8,12.0,5.275,17.825,9.925,1078.0,776.0,332.0,460.0,803.0,340.0,1108.0,721.0,20.0,18.0,16.0,19.0,17.0,19.0,18.0,19.0,-0.5811018088732006,-0.5383940214167404,-0.11516693363390135,-0.11282412145969761,-0.5451684715553042,-0.3712055806056725,-0.48273261300902187,-0.2165991344155927,-0.3928445836610758,-0.2295353950582226,-0.4933408891153594,-0.023973122815171746,-0.6358958653422581,-0.5507575527280438,-0.29778029232581266,-0.32882004932963577,-0.7773515150926857,-0.6080163047746916,-0.6334969717684226,-0.447941637537261,-0.23968241877459998,-0.027147074092771676,-0.14671599735363702,-0.050645274756807954,-0.479338995097446,-0.37568362410512257,-0.5185620660152123,-0.0767773876507891,-0.4949159231238273,-0.24638089424524068,-0.19851161404163822,-0.23297718686063712,0
12.475,9.55,4.875,6.6,14.05,4.95,18.25,9.375,748.0,589.0,297.0,383.0,918.0,337.0,1037.0,664.0,15.0,14.0,16.0,16.0,18.0,19.0,14.0,20.0,-0.1881532712639863,-0.13389229083474372,-0.4615109134206902,-0.027020631036781772,-0.3346882000128292,-0.2993842144560778,-0.3467560850656908,-0.027149801531420915,-0.5706654113920747,-0.48087563601627864,-0.4778353627347845,-0.35126420643059597,-0.23840834651752296,-0.21157699154063372,-0.2795777356841733,-0.028422237362138943,-0.4615354015148281,-0.26019559350778815,-0.12374851407135246,-0.40754924940101195,-0.4451499300053057,-0.3318886670505051,-0.3637039617586561,-0.2018057098406951,-0.3128175456065426,-0.35860707951736104,-0.36811839061140605,-0.2037557922646614,-0.6000141205118517,-0.3809679989826153,-0.45324077694928183,-0.4415552646301022,0
15.275,9.8,5.75,8.075,12.6,5.65,17.525,12.525,1008.0,616.0,352.0,538.0,767.0,339.0,1085.0,885.0,18.0,19.0,20.0,19.0,20.0,19.0,16.0,20.0,-0.6533443882353596,-0.3747015106520095,-0.49467686392170135,-0.35748090071414135,-0.26326468717985435,-0.4454520843104895,0.1225686276836084,-0.34346475134735416,-0.5588962066002942,-0.19353050558865048,-0.47040021489071704,-0.37438521270198605,-0.571825156878248,-0.4500736582620512,-0.3187878165095973,-0.19164863883472535,-0.20285164459224214,-0.146028694937145,-0.030677579024447368,-0.47414682163698924,-0.021786084323473894,0.03503202060649111,-0.04340614273304048,-0.12869222554802726,-0.45294463639743715,-0.34033998789178327,-0.4626801490543348,-0.2652626480225359,-0.7874488081229875,-0.6284459574884598,-0.42277005657352135,-0.4670995549864686,0
19.425,11.25,5.95,8.925,11.475,9.725,21.8,9.1,1299.0,794.0,405.0,648.0,741.0,635.0,1313.0,465.0,18.0,19.0,20.0,23.0,15.0,19.0,15.0,11.0,-0.5932081096907207,-0.3836017749678323,-0.09711395357945,-0.21097202102998994,-0.7774988134633145,-0.5922304499876422,-0.5516299322326892,-0.5656860116257583,-0.6870713415311003,-0.2581253544191299,-0.43651465496341874,-0.4551057103584793,-0.800255147872782,-0.597772862758434,-0.48118126248182047,-0.31804136347006756,-0.5366665276200615,-0.3527963745820535,-0.5024581085417579,-0.48340588589667505,-0.5363697680492077,-0.36341975935531007,-0.43393423707204215,-0.2487516117405823,-0.5084119595739806,-0.14226620710716875,-0.5623097189886714,-0.6266185641282402,-0.08098372084470831,-0.29267104281666817,-0.09966212397206435,-0.25477457449814933,0
19.725,18.85,5.8,9.325,15.45,13.95,20.9,14.875,1315.0,1156.0,382.0,543.0,1039.0,893.0,1372.0,854.0,19.0,11.0,20.0,12.0,21.0,19.0,20.0,16.0,-0.3524683453524274,-0.36458286794824113,-0.06415768094070873,-0.40157968515743486,-0.3864922159671462,-0.2844264201836013,-0.5764681179087205,-0.3912006608175528,-0.5386585807240467,-0.3626792124585314,-0.1436513772130765,-0.33750930534591406,-0.19199035191384917,-0.25077365353057224,-0.2656002210981015,-0.23588228406340828,-0.7137448680291844,-0.33899221346308156,-0.2340011993141755,-0.3616147104685226,-0.819702137842951,-0.688836394972667,-0.5962517687512378,-0.4097955978484447,-0.42301664486809876,-0.26134017802742754,-0.11764312398797398,0.007441088277369883,-0.13630195144637527,-0.3145953337011368,0.006458290316251868,-0.43802158528909396,0
26.075,24.675,10.175,16.6,10.625,16.8,27.7,17.275,1523.0,1498.0,694.0,1092.0,677.0,1001.0,1776.0,1179.0,15.0,17.0,20.0,19.0,20.0,17.0,17.0,16.0,-0.4976454927092613,-0.37022567628599135,-0.4816202440905726,-0.5970314355712819,-0.22588100186027563,-0.2998239889077246,-0.2933579145951242,-0.07931411770718208,-0.5368256427135543,-0.5648388892470142,-0.11214098546314019,-0.4272944821809535,-0.6316179237560788,-0.5334006276702644,-0.49950373945182325,-0.669272932888555,-0.4854073114280016,-0.1910247501851399,-0.18681599622489395,0.05167632199292393,-0.35484988996892913,-0.3167879784198237,-0.37067137821415735,-0.06432741365221391,-0.4648463887872059,-0.6168513995218239,-0.3488273537758558,-0.37538072213685064,-0.4576702737641581,-0.31669941688418535,-0.04335163901801454,-0.20484080476127653,0
26.325,28.575,11.275,19.2,15.275,25.1,49.75,25.65,1579.0,1783.0,710.0,1305.0,994.0,1626.0,2998.0,1866.0,17.0,14.0,20.0,21.0,17.0,18.0,16.0,23.0,-0.5565979161713592,-0.662877635495946,-0.4920219614535202,-0.3778525989966751,-0.29764235943161027,-0.10312296346300512,-0.17399169085026434,-0.14476608897215743,-0.3898678534836906,-0.15105551801161238,-0.3351321095157062,-0.35399730118405515,-0.8529253139031413,-0.7837913187596838,-0.5579622581305552,-0.5165163743409101,-0.5576351997364316,-0.4102538942950579,-0.4443642127951478,-0.2483320060474185,-0.43894583310357327,-0.19214226955584743,-0.26704586282290144,-0.31204187323960403,-0.5313570393878927,-0.5417041763734898,-0.4674966860749186,-0.3570710650409961,-0.6489201698279831,-0.20860759591407388,-0.40170842040688376,-0.5343857505757925,0
21.875,22.225,8.85,13.3,13.625,19.1,44.4,20.7,1411.0,1389.0,563.0,790.0,768.0,1278.0,3104.0,1425.0,19.0,17.0,19.0,18.0,18.0,22.0,22.0,16.0,-0.3871569949444865,-0.40953060688173276,-0.44766154795950364,-0.40008538892180484,-0.38115831422976804,-0.03883866515122788,-0.3044460612513936,-0.25919290570720543,-0.3364726943195106,-0.3117529976965436,-0.34878178993583797,-0.35993184291729985,-0.47238796562774443,-0.5685580750334683,-0.4371589292886051,-0.43733465587464504,-0.2193814937617405,-0.256235709779629,-0.20312032271360972,-0.10167444678492497,-0.5494750496743273,-0.14278375977492616,-0.001593106771294314,0.09571982557877796,-0.7465989209394398,-0.5383396158538638,-0.5939062963228637,-0.37525286016400283,-0.5109862202248531,-0.22858043012727625,-0.03652610549163948,-0.33709704001431806,0
20.225,22.3,7.35,10.775,11.975,18.95,27.85,15.175,1488.0,1336.0,450.0,667.0,844.0,1288.0,1647.0,934.0,19.0,18.0,16.0,13.0,23.0,16.0,15.0,18.0,-0.8415083745014112,-0.4320618367838162,-0.2145997890428056,-0.24967548826790012,-0.24270209087130953,-0.10795198441145708,-0.210292228237628,-0.28376907474610163,-0.3011103790585792,-0.2869099627365111,-0.25578245734021265,-0.27179338086617955,-0.45470262638969333,-0.34132260907505724,-0.47614843885042024,-0.3671002878598868,-1.0227206322526063,-0.5818637155061721,-0.001709904973288409,0.06801634990649615,-0.597805523871006,-0.4852896034935849,-0.33215797859898194,-0.24360831118123885,-0.30299282636487956,-0.16865604040512308,-0.34667274308959933,-0.39237587420012715,-0.25215708227150957,-0.12666334191061845,-0.2793227671135523,-0.1784558056421992,0
23.175,20.075,8.65,11.175,11.225,15.45,35.15,13.4,1520.0,1340.0,563.0,737.0,706.0,963.0,2126.0,722.0,15.0,21.0,19.0,19.0,18.0,16.0,18.0,13.0,-0.6195110134810026,-0.3839230254166262,-0.27468052731300985,-0.3410690374409827,-0.4057097555103784,-0.20871357951905606,-0.1870863300007001,-0.15025959515101123,-0.6038753254060051,-0.34396286700289036,-0.10108216911041756,0.02657953391651,-0.5807299265067187,-0.27370877889347295,-0.3965201767934561,-0.358978255904037,-0.31656808820107535,-0.12294842531110325,-0.17471123908673938,0.04463181955463404,-0.34196089918389616,-0.21308092756322616,-0.13165660035869875,0.19459764989233544,-0.44049054408544835,-0.36609896554955024,-0.3875233248120179,-0.07966680645242726,0.03026033057150049,-0.3957884082085884,-0.09913590852728257,-0.13636894470355498,0
22.45,19.525,6.75,12.4,12.125,15.825,28.425,10.4,1580.0,1286.0,474.0,734.0,763.0,917.0,1587.0,605.0,18.0,14.0,19.0,14.0,15.0,18.0,15.0,17.0,-0.8178409667295123,-0.7570427801296541,-0.4725794624067666,-0.36018753169576534,-0.4015098573608392,-0.17538298265094868,-0.3162368827490538,-0.23971943309643862,-0.8670717175506844,-0.4995400108267705,-0.40397835574107527,-0.23293861187756673,-0.3190564486952114,-0.539697276544684,-0.21739702310893583,-0.5764538572738044,-0.5038195081888708,-0.22507512032822247,-0.15796564839351468,0.006559200756093593,-0.3272808601655309,-0.1228750608207815,-0.2519885562368431,-0.07435695312352496,-0.31600606617340943,-0.4211909547792198,-0.28649427123818144,-0.21498388419025835,-0.11298038249458967,-0.5815304579419449,0.031204351463283663,-0.2714438965451718,0
18.8,16.4,6.725,15.625,10.225,13.8,23.3,11.65,1346.0,1102.0,420.0,965.0,606.0,794.0,1471.0,708.0,18.0,18.0,19.0,18.0,16.0,15.0,17.0,17.0,-0.6687522070655452,-0.5350877358451553,-0.10695135352862395,-0.2116125873154054,-0.3539283141916354,-0.23218582003104543,0.20732521143073163,-0.25613771858841616,-0.42762133798955015,-0.17404026187160895,-0.4113189245635981,-0.3368984383027366,-0.5238229858173986,-0.4897499032576542,-0.460835134823314,-0.42086604023827906,-0.47387956983234764,-0.3568096862957859,-0.20427785042190186,-0.1311912152925789,-0.23088195713145093,-0.42952964562088325,-0.23530340483608556,-0.14525560257331585,-0.5269384539924163,-0.4717030831713692,-0.07048038400714733,-0.17750631009695192,-0.5345316409242047,-0.6143430716065893,-0.4452532604477761,-0.6158270134061092,0
17.325,19.95,5.575,10.625,15.1,10.275,18.85,9.675,1195.0,1376.0,328.0,683.0,1048.0,685.0,1116.0,576.0,22.0,19.0,15.0,21.0,18.0,16.0,16.0,19.0,-0.5202558206220201,0.02890562925964497,0.18414676433706462,0.06675101342469565,-0.4261991826923763,-0.1738394718311965,0.22993847785110896,-0.03237977849162709,-0.37497671406351935,-0.2540421952655573,-0.4926781194240962,-0.41679188449850935,-0.4616829462555497,-0.4343484654411116,-0.5299108404943125,-0.25233909334749244,-0.9227220233690754,-0.4132233719811101,0.001368082014500281,-0.018398495172032032,-0.5589762501665259,-0.22798644362135473,-0.03445169350988177,0.0438526015258265,-0.2631575587038189,-0.2925935767710103,-0.049848053264592296,-0.14500166338944614,-0.48481186401876825,-0.41753856659894323,-0.36669860557031375,-0.33450665064697743,0
19.65,17.925,5.55,9.85,10.3,10.3,20.9,10.45,1337.0,1116.0,379.0,662.0,690.0,596.0,1377.0,747.0,19.0,18.0,20.0,20.0,19.0,15.0,17.0,20.0,-0.7174037397327138,-0.3609357052040219,-0.45898209032285686,-0.4500420972890458,-0.3494297652860886,-0.36152393149745315,-0.27294789441821377,-0.2630407599222085,-0.7506546587948015,-0.2770432660416531,-0.5383395437461094,-0.41002429191075473,-0.5552219655891267,-0.38794587319280266,-0.3618635572202744,-0.3928633182854187,-0.6641884361295525,-0.40593774035455826,-0.49520581143022485,-0.38690523522737946,-0.2797436739728014,0.01571566391951687,-0.1380099478071245,-0.13374850983279643,-0.7121272546087213,-0.5945460994824286,-0.4974949388105065,-0.2592355214086114,-0.6476848732201259,-0.35667158071388994,-0.16980766193771715,-0.23247514378796724,0
15.6,16.475,6.475,11.825,10.7,13.825,25.575,12.65,1002.0,930.0,381.0,720.0,711.0,897.0,1514.0,870.0,21.0,16.0,14.0,13.0,20.0,19.0,16.0,18.0,-0.491861494131214,-0.2586950161083944,-0.2062680154341805,-0.30214875270525465,-0.28595015941909996,-0.33048478321100194,-0.494179756068332,-0.20988597195249967,-0.506421457860839,-0.295432280078862,-0.25378125951056496,-0.21814322075665107,-0.45980246774941536,-0.41521703280333816,-0.40609215201859966,-0.4880564037205825,-0.5672972433785685,-0.2887579787672127,0.1311209762652393,-0.037048427853678276,-0.5492887662288205,-0.22702734204839653,-0.048263597672467705,-0.018492580480070592,-0.5681015545881173,-0.6119063955122738,-0.6148800011226968,-0.3837329182120086,-0.5827701829175489,-0.44602966910427266,-0.03556860959783417,-0.1534299590180341,0
18.725,19.85,6.875,10.825,11.85,16.525,25.3,14.3,1256.0,1355.0,409.0,653.0,807.0,1070.0,1430.0,952.0,21.0,21.0,18.0,17.0,18.0,19.0,13.0,16.0,-0.6503249553908044,-0.38757096680701214,-0.3452446888159327,-0.08279243023620499,-0.7962924483676703,-0.7330959460033867,-0.6906275810551269,-0.24300329345791072,-0.403634922345484,-0.3570903717720263,-0.31737910258328006,-0.15201087407227315,-0.41581552026901925,-0.33097926511327147,-0.3149776788194995,-0.4518889366901231,-0.5259152216062194,-0.26476113966344683,-0.1742229516778369,-0.34324161947849047,-0.3318196657739246,-0.20717144060391046,-0.031850636994519656,-0.18521443836237295,-0.17663520298321098,-0.5181185531303594,-0.09142756230523971,-0.36918337261506934,-0.7889690500297639,-0.5132633207735418,-0.4355693184791326,-0.24213088446957462,0
19.1,20.2,7.075,11.1,11.7,14.775,30.6,15.75,1205.0,1244.0,445.0,694.0,788.0,898.0,1990.0,1047.0,15.0,20.0,19.0,16.0,23.0,13.0,19.0,16.0,-0.6216397810927058,-0.522732956985995,-0.2692806578106764,-0.011197821864934714,-0.21303071207617544,-0.1962606757377256,-0.13567993706122625,0.03490216353744751,-0.5976874798016076,-0.42111042466961973,-0.387378616210417,-0.3627242663326901,-0.4532550610864982,-0.08158180674103654,0.10076327575110489,-0.12190143783735273,-0.765684785955142,-0.4436267266472736,-0.3292732978874885,-0.1503000440034992,-0.26826884319252037,-0.2692422641390975,-0.1007852704021715,0.03881052482502344,-0.7393263474798006,-0.6328168851548371,-0.29357167611597035,-0.12631125232887613,-0.4852281434886937,-0.1258294812101687,-0.19650954143158378,-0.040679905925543824,0
17.775,17.875,7.475,13.125,14.975,15.1,36.3,17.5,1174.0,1004.0,464.0,883.0,961.0,1012.0,2413.0,1176.0,19.0,15.0,19.0,18.0,19.0,19.0,16.0,20.0,-0.46492806986645846,-0.09264114369536629,0.15625399920726518,-0.05146192133548772,-0.18857931807160713,-0.03401841976622418,0.026464831928964202,-0.1105513812199297,-0.5095442614179969,-0.6703105624794775,-0.3925766608055838,-0.45505854908493504,-0.676300911191575,-0.5045293456314988,-0.4061272400460873,-0.23177633964642563,-1.1002341887976725,-1.074262446808671,-0.7372176299101301,-0.3882655994791427,-0.5851702134771303,-0.4741228814850747,-0.06938329171799362,-0.05636721257627087,-0.628689352985115,-0.8000788128283048,-0.5316893103078326,-0.585086324350004,-0.44493184194127744,-0.10944817688301807,-0.09171940296938962,-0.32821580595364314,0
21.675,20.4,7.7,9.775,11.0,12.825,26.25,11.075,1590.0,1333.0,469.0,586.0,767.0,922.0,1618.0,704.0,24.0,22.0,16.0,14.0,19.0,19.0,16.0,14.0,-1.0700654760792896,-0.7940181905916407,-0.4732256351884291,-0.2289293267881757,-0.6458504170245922,-0.27934335637584956,-0.3758491234857005,-0.20683213261499667,-0.41099994416378033,-0.22611161802028643,-0.04416673366731691,-0.13621228061729967,-0.5710774594346572,-0.3355392922474747,-0.2762748274039994,-0.19220005051556555,-0.3974719919862666,-0.26590236633252656,-0.10189031930849735,-0.08249925732474152,-0.3429960775500501,-0.034033701710290826,0.25598736619333967,-0.07326301493501639,-0.4365832853221068,-0.46187054747547784,-0.42564711326432136,-0.2765245710737955,-0.30716540960177313,-0.333427028746677,-0.07994570394337085,-0.16136769710798982,0
17.525,16.35,7.775,8.95,12.175,12.9,23.9,15.55,1052.0,1045.0,524.0,579.0,854.0,806.0,1603.0,879.0,18.0,22.0,20.0,20.0,20.0,15.0,18.0,16.0,-0.42491999111061374,-0.3438388977367733,-0.22426959475154276,-0.24075888793404412,-0.34106158607470854,-0.23511454102717813,0.09350211863733449,-0.024967718568796055,-0.48630465257530425,-0.2853557925315332,-0.2180792673113006,-0.2131180785024112,-0.40899420689994354,-0.260794911373319,-0.42124869162658646,-0.13462171414183635,-0.7060774129669513,-0.5348881453301064,-0.12762030269380553,-0.13011506507349835,-0.32197861326127747,-0.14888823950719823,0.05297447975199163,-0.09931063396233591,-0.7980176768421565,-0.7220832500282862,-0.4985597380629797,-0.1684855946152795,-0.2579358667846124,-0.4765861308864066,-0.18590830416869247,-0.2072140846904169,0
18.1,16.75,7.6,12.725,10.35,14.2,28.275,15.625,1248.0,1124.0,482.0,637.0,688.0,895.0,1759.0,945.0,20.0,18.0,18.0,11.0,13.0,18.0,15.0,20.0,-0.520148544604203,-0.15208800248310494,-0.32928837016124346,-0.2605495214778576,-0.5092108484533653,-0.35612910890627975,-0.22644097622065248,-0.12990236393786117,-0.48298536413979754,-0.2282160832907623,-0.558469709423123,-0.19506970430237985,0.07449710484148184,0.4310488942578502,0.23133643185070135,-0.03773010146206595,-0.41359955149032523,-0.37925809034997393,-0.03714048828291667,-0.27927640479145127,-0.5329621698703072,-0.22579584481207812,-0.00717645814757865,-0.014225713909518031,-0.5452279033132904,-0.614695832293416,-0.5392350063314767,-0.47188016454100723,-0.4509075340395485,-0.43209177471850324,-0.5636390536941186,-0.24280203817196652,0
16.575,18.65,5.45,9.35,12.95,15.625,28.025,14.5,1223.0,1215.0,348.0,644.0,901.0,1096.0,1725.0,923.0,23.0,16.0,18.0,17.0,22.0,19.0,20.0,18.0,-0.5366487318670493,-0.27315426659345154,-0.35811904067842604,-0.13913772192663515,-0.699533356781284,-0.5890725001273249,-0.44520895466600846,-0.10974608379537343,-0.48507807176275075,-0.24065849251254967,-0.385716598311122,-0.35066678130521,-0.5352261574790617,-0.3317129221092912,-0.3675298460057554,-0.23302445980272826,-0.5369764867815545,-0.39026814806429627,-0.21054023615738782,-0.47237732537033583,-0.5074411874207724,-0.3891219748254973,-0.4180186864412068,-0.15572577310065872,-0.5597274114200925,-0.4974544223931759,-0.5342720510004685,-0.45971720671551053,-0.5204097681038445,-0.32963135104319763,-0.20431844547735092,-0.22739927705396143,0
25.4,13.875,6.35,14.25,12.65,17.125,43.025,16.275,1617.0,833.0,430.0,1038.0,787.0,1035.0,2538.0,897.0,18.0,16.0,16.0,21.0,17.0,16.0,18.0,13.0,-0.9245721138520693,-0.8098532250270661,-0.43392808152680445,-0.05385074747655359,-0.3578889389791739,-0.2684527606863179,-0.023857600871477157,-0.17561843111985198,-0.40624084862262394,-0.0489603511202826,-0.015014859597544382,-0.18369842464732394,-0.7208968272172145,-0.07206066369446129,0.018688189759112732,-0.195032891686643,-0.4763621558373412,-0.562509077351357,-0.2710364198116716,-0.04212189265116841,-0.533640519009423,-0.3288397338986818,-0.16470815079472997,-0.024975951663966687,-0.32119610345437194,-0.311004581384668,-0.2488442797811598,-0.43346635634258185,-0.13387579795594282,-0.19869062790726288,0.1947275527627465,0.02572821172871235,0
24.05,14.525,7.95,7.975,11.4,17.85,45.125,26.225,1380.0,950.0,549.0,516.0,741.0,1280.0,2966.0,1526.0,14.0,17.0,21.0,14.0,22.0,17.0,18.0,17.0,-0.25450678277102695,-0.3805687595090743,0.014804204392974064,0.07264971133086813,-0.4628699788031649,-0.15692440541263492,-0.25850436320790077,-0.15021814568544709,-0.62623205520763,-0.1772635865999394,-0.0505787837897785,-0.3033498024005189,-0.2421328016808313,-0.292282158810027,-0.0550539954355073,-0.380637950181941,-0.5801614777296964,-0.47161031436690726,0.03754420708199952,-0.1971065827171685,-0.5709159155222749,-0.10021366177979657,-0.5244026425987881,-0.5319286873030488,-0.46607908267064896,-0.5121100305403937,-0.4364368111795986,-0.39085071429010154,-0.30976809516598064,-0.4267543027011286,-0.2584319872156533,-0.1779913498827335,0
20.55,16.075,6.975,11.65,8.925,18.375,46.45,28.2,1458.0,1084.0,419.0,765.0,576.0,1047.0,2941.0,1885.0,21.0,19.0,16.0,18.0,18.0,12.0,21.0,22.0,-0.6133412556824377,-0.48377622514005825,-0.430167082953151,-0.21102512603831453,-0.7668528399692339,-0.6417128459213166,-0.5209235179836531,-0.056807663453244533,-0.39088536701767074,-0.34936800327221273,-0.22513988062696721,-0.2828182576842634,-0.4131422782264703,-0.32080357974138934,-0.27149566291538857,-0.14496896145159563,-0.39494767116786944,-0.032547104302002305,-0.0455986366364172,-0.16861587739600026,-0.320718009490418,-0.24005784295585533,-0.536131696675304,-0.372705068772358,-0.6354396994492262,-0.7021275303027092,-0.6933820419265524,-0.38364705160826384,-0.502999825920389,-0.14483273616713577,-0.019150464853135842,-0.1764276877888232,0
15.825,13.45,6.175,9.35,7.975,17.775,36.55,14.95,1080.0,936.0,357.0,599.0,525.0,1021.0,2290.0,907.0,21.0,18.0,16.0,13.0,17.0,19.0,15.0,13.0,-0.494944537534261,-0.28598946951579846,-0.27705005127079396,-0.2609080273392321,-0.6305197368603923,-0.4206903433662779,-0.3884811782823198,-0.3702754354995615,-0.27305703270873727,-0.30268648942821497,-0.36533194971934363,-0.2864108701107381,-0.4107611209049861,-0.552138789284951,-0.38547622255001956,-0.47698276424878017,-0.620879667563676,-0.46753867169215374,-0.509752444310972,-0.34263675801483917,-0.5254250230315387,-0.6768186546776722,-0.5897634639402141,-0.7254434263051578,-0.6637705506451888,-0.7626775624373823,-0.6453510008051649,-0.4934044524599942,-0.41066981014638776,-0.11953219292412648,-0.23888664241527618,-0.2063534762193102,0
14.4,14.675,6.275,9.65,11.45,14.35,35.475,20.425,861.0,955.0,418.0,678.0,791.0,797.0,2195.0,1262.0,14.0,19.0,18.0,20.0,20.0,14.0,16.0,14.0,-0.4747926453591026,-0.26888895946308816,-0.4926508194453566,-0.3310299221547128,-0.38602923236596626,-0.22518895933073538,-0.21495758762624934,-0.14322505746879455,-0.5598709992847111,-0.28451409536937583,-0.34213525999004757,-0.1984714559031541,-0.781250636132918,-0.7884126495495005,-0.4712816309218971,-0.407546360937709,-1.1045222169464275,-0.9756086254485673,-0.8522672576452088,-0.5279854787883712,0.03397039041067803,-0.22636647345194663,-0.21859633757709648,-0.15260273737330354,-0.38238161859516506,-0.21155852517512855,-0.43819569732338914,-0.21016698302797396,-0.4894172981371391,-0.49935489448714454,-0.5582192028599944,-0.3874376113493726,0
23.325,18.225,6.55,13.175,14.45,15.725,42.475,23.95,1511.0,1187.0,437.0,972.0,972.0,898.0,2906.0,1669.0,17.0,17.0,18.0,26.0,17.0,18.0,21.0,23.0,-0.6919788912779264,-0.6335224208097978,-0.4515668843670854,-0.4627901861374739,-0.43374406755282724,-0.2527349306543999,-0.3203009626810499,-0.3173385673113302,-0.5309239751773476,-0.16644440416915593,-0.18480481851906796,-0.21449043463702308,-0.8152872766718404,-0.43976030494842006,-0.3753240128497055,-0.2915336775312511,-0.8253541800955625,-0.5804551317026604,-0.41407169390904586,-0.17169074637952084,-0.07201217701368416,-0.3625117430460315,0.00012285585687264776,-0.33031097102737367,-0.5010049046824895,-0.31503881017596486,-0.41151230160904007,0.020065716855742655,-0.6145164627630287,-0.38160141009868953,-0.34496577862730166,-0.08160083954743817,0
19.575,12.425,7.55,10.15,13.875,17.95,34.275,16.65,1192.0,757.0,526.0,687.0,857.0,1068.0,2246.0,1140.0,19.0,19.0,20.0,18.0,18.0,20.0,13.0,16.0,-0.44364139386267015,-0.4181240351378306,-0.3154483364389891,-0.46840002709467804,-0.2426151454049962,-0.11406311397760574,-0.30194883061756295,-0.11720999327067841,-0.6751926411742379,-0.14422005498536677,-0.13592419317229473,-0.270448028625836,-0.6179325646631604,-0.3374360857649084,-0.21949078150965212,-0.24040577674280061,-0.5544213615925074,-0.6130081169165074,-0.4695097156471312,-0.22169140636196463,-0.19911761279232285,-0.21836940974540295,-0.06521968818557138,-0.2680921671369293,-0.4074563362152644,-0.315510155616772,-0.1305278408822035,0.12576387410306888,-0.479742017745805,-0.2751279067916517,0.051863709423952124,0.08037214156142121,0
19.775,11.925,7.275,7.925,10.325,14.15,30.95,14.475,1330.0,848.0,492.0,483.0,665.0,806.0,1957.0,1062.0,18.0,22.0,17.0,14.0,15.0,16.0,18.0,19.0,-0.4570210449623526,-0.2789550699314709,-0.10260932673252085,-0.37623301519200675,-0.4992192231202463,-0.15892335021508738,-0.46069930083369404,-0.355286433198437,-0.7230927034284643,-0.41952895039055343,-0.3224951422557856,-0.3796627354044735,-0.5799824711339912,-0.41616982394984764,-0.3570546717318999,-0.44298714116089094,-0.5405149694304706,-0.31351170158525565,-0.3717844500211734,-0.3638431613810177,-0.07466383906141985,-0.05644531251927996,-0.02066388461103785,-0.34929312466624,-0.28428956935042177,-0.003285631793651503,-0.16991046449630293,-0.49615075122014896,-0.7268461316817646,-0.43124810444168626,-0.312285992887468,-0.3033799570958419,0
24.525,14.5,6.6,10.325,12.525,14.575,37.425,16.575,1650.0,983.0,457.0,687.0,766.0,962.0,2522.0,1078.0,22.0,16.0,20.0,16.0,19.0,18.0,19.0,17.0,-0.5975706227927028,-0.40594706395200814,-0.37104314932941823,-0.38070169761670886,-0.4343983942518232,-0.18458805889573887,-0.23066360542218034,-0.21013311070644783,-0.5113937684796167,-0.21207833891950092,-0.2079223971640692,-0.31367499671174737,-0.6747344878033075,-0.4815446071865948,-0.5335386694697664,-0.47335944490896625,-0.5488733906114879,-0.41402772435195095,-0.49255512012565733,-0.33785421998024306,-0.44013707671484614,-0.24131252075317558,-0.26983109363029356,-0.3624814696614515,-0.5192346099504361,-0.4280810914351615,-0.28602462931303096,-0.1792053147900105,-0.6670378618892214,-0.6277980684851285,-0.373195516862844,-0.11348463264774598,0
22.55,18.0,5.025,7.15,13.425,15.55,33.75,13.9,1712.0,1259.0,355.0,480.0,852.0,983.0,2085.0,874.0,23.0,17.0,19.0,21.0,15.0,20.0,15.0,16.0,-0.6622087477166615,-0.41092489534897525,-0.049023192116576374,-0.2898614131532877,-0.534096128712333,-0.2815132565401175,-0.06772691623376947,-0.3202727505722975,-0.4654190911980553,-0.06603101418852017,-0.0665623091713252,-0.1613997432058648,-0.417813012837622,-0.382776842862116,-0.5717814579187598,-0.21954290261339462,-0.7364033370800935,-0.6052140360390303,-0.4712243942585814,-0.40031946718586864,-0.3161928811572569,-0.10322409641058845,-0.17397364710171415,-0.3741713984902519,-0.3608137558857274,-0.5027450237655385,-0.2855237709940486,-0.4849417393559053,-0.30749126983963937,-0.4246789706696746,-0.1342702906999041,-0.12078177386744016,0
12.55,13.35,3.75,5.8,10.275,14.775,29.4,13.15,879.0,947.0,220.0,400.0,628.0,943.0,1745.0,832.0,22.0,20.0,18.0,20.0,19.0,17.0,20.0,16.0,-0.599994674652491,-0.2343924321296256,-0.076883563759812,-0.15350063589528334,-0.6589913408699327,-0.3637645645693236,-0.38843707582935666,-0.3663226849007205,-0.31846516601437463,-0.12451325280933578,-0.314690285883567,-0.47209652903223354,-0.7536998306447589,-0.37281026525284994,-0.0976404421775072,-0.035357333048797186,-0.492628029651305,-0.4294806318589122,-0.35363373391861436,-0.043683221550628946,-0.4571747182123722,-0.3816539775059953,-0.1919863074836347,-0.2061207373784522,-0.3115798316976659,-0.2747330625822017,-0.3178245745323946,-0.26515900020289535,-0.7886541500944633,-0.7057344846391747,-0.6646438583537122,-0.41736626081492423,0
13.15,12.025,5.175,8.35,13.05,16.125,23.875,14.4,881.0,814.0,328.0,565.0,908.0,981.0,1528.0,934.0,19.0,21.0,20.0,17.0,19.0,20.0,19.0,22.0,-0.48193981619895016,-0.3190132623409735,-0.17522341286072163,-0.2583565635803466,-0.5806603995740743,-0.36890707289518326,-0.09691493639204123,-0.2770919994001274,-0.2449455592251084,0.07967336680953983,0.0035497834526819756,-0.46055779117229845,-0.7105972867717282,-0.6766397884859735,-0.3716642122674634,-0.43072570153443696,-0.8790035050893062,-0.6169905515894514,-0.15448620321166376,-0.007817439788554726,-0.4488542691925314,-0.4690921278073808,-0.07437078594334691,-0.04757309068975648,-0.5938094231018048,-0.3627878915743231,-0.3235405594340547,-0.13164216119500122,-0.7232164030795841,-0.35956989019097446,-0.3227207157818139,-0.26032407460781454,0
14.875,14.1,6.75,9.225,13.225,12.025,21.875,13.85,1025.0,969.0,459.0,671.0,909.0,753.0,1502.0,958.0,19.0,18.0,18.0,19.0,17.0,19.0,18.0,21.0,-0.7367169688210885,-0.655244783044213,-0.5102991275209321,-0.48879443289413904,-0.7945267424164246,-0.544427901771191,-0.48212452091038543,-0.4338834998455091,-0.544807781621774,-0.19421407909561625,-0.3355916798797125,-0.44741208937561083,-0.8221176831472248,-0.5992118039817679,-0.49035901173214236,-0.3435143833606448,-0.7151839654671694,-0.40344374300898006,-0.18220242609397436,-0.23083500783434324,-0.22560421587448212,-0.46472902331827304,0.23713585502053525,-0.0010919639769451743,-0.6749280462845744,-0.4844720156965447,-0.46601565319882865,-0.32876272248673877,-0.5951535981408917,-0.3720319577261912,-0.16867966697312425,-0.26593268071043935,0
11.325,10.85,6.4,6.075,11.65,11.45,22.025,13.85,789.0,648.0,463.0,377.0,792.0,753.0,1523.0,951.0,19.0,15.0,20.0,14.0,21.0,19.0,20.0,19.0,-0.8871441518954315,-0.6942259093777345,-0.5582209771571303,-0.42502691167450957,-0.42585681100232475,-0.3349255154165666,-0.35042627893263295,-0.26292377966895597,-0.6878518879188209,-0.14943549094724423,-0.5094081853044365,-0.4649504463932427,-0.29553098280483686,-0.3184555881939475,-0.2912056733715125,-0.2691629255668749,-0.6431291964221819,-0.45033917509849947,-0.38188283091947334,-0.10127417223811319,-0.451831520034204,-0.30314717679526276,-0.31291272494927874,-0.3651507679235588,-0.517110577074336,-0.3166568707650886,-0.3590295374678351,-0.5169297900911782,-0.5668360035985903,-0.5134653925989792,-0.3620277443344182,-0.33242085152913026,0
15.25,11.9,6.275,6.55,9.85,12.975,20.2,11.525,999.0,697.0,447.0,379.0,671.0,827.0,1290.0,752.0,19.0,17.0,18.0,17.0,16.0,19.0,21.0,15.0,-0.7251372070622017,-0.5286907564048938,-0.4419017703356651,-0.43996305051160933,-0.1556822944360848,0.07416254034444864,-0.23420698520461758,-0.29051178405226985,-0.37236370859151874,0.1798236182282647,-0.09417427538012958,-0.25199064774453894,-0.19919888448138967,-0.1420828488913493,-0.1856464504092875,0.037292632693463904,-0.7565630919086771,-0.5099215143893311,-0.3471174291177976,-0.2712640681204773,-0.3029343307282823,-0.17221121730167718,0.04454525792887505,-0.057508015752759746,-0.4426993136557708,-0.149753953486897,-0.397560600801424,-0.36463555943058873,-0.2698622735804865,-0.028378543279264846,0.02681882435769362,-0.17469975301300206,0
13.875,10.825,4.7,5.6,8.0,10.95,14.05,8.675,850.0,734.0,298.0,325.0,530.0,666.0,753.0,514.0,16.0,21.0,17.0,18.0,17.0,11.0,13.0,16.0,-0.5596302238058171,-0.4463374346992464,-0.4474690807508216,-0.3907245333882519,-0.5996135873231591,-0.1424203256787591,-0.609161324873093,-0.5468149300586158,-0.554214999015259,-0.14047163951288588,0.06148377202419322,0.04343423425412748,-0.32220489607413266,-0.5762634669631544,-0.11845224598215504,-0.3514309361927795,-0.5646231669049815,-0.30881026047277005,-0.3095216226278785,-0.2978931790051787,-0.2522343650497738,-0.16200500676807217,-0.06951275566940363,-0.23429121243078818,-0.07590605980443577,-0.23913307408413859,-0.2893552558180401,-0.1391328982808285,0.004414072101727326,-0.3738988562171578,0.16753696959106118,-0.1463736192476345,0
14.775,9.0,4.45,5.775,10.45,9.7,18.675,9.3,991.0,568.0,273.0,337.0,684.0,576.0,1018.0,631.0,18.0,16.0,13.0,17.0,19.0,17.0,18.0,19.0,-0.5160314017708618,-0.143924797969475,-0.15800379481081872,-0.3780270482118768,-0.47009810759891035,-0.25566173325222763,-0.3552063171411181,-0.5211647188012131,-0.4621349503501046,-0.21135031036912424,-0.17390553322090632,0.06661643540827059,-0.5233843484080677,-0.4999223665509426,-0.12994866547877268,-0.036822255445358956,-0.848861963632513,-0.6021177236235071,-0.19626600069279612,0.05261609044500162,-0.4085095689474782,-0.37502355459055714,-0.3091324529513389,-0.21129829070855788,-0.09013427512899173,-0.4049793822746772,-0.16172068511354476,-0.21487130643542235,-0.6162050472179934,-0.38307733309658926,-0.004499667772532012,-0.04529673358223321,0
16.9,8.925,4.85,4.75,10.425,6.5,17.075,8.325,1219.0,569.0,315.0,323.0,687.0,422.0,1031.0,534.0,23.0,17.0,18.0,18.0,19.0,15.0,19.0,15.0,-0.8091634098604261,-0.5752553671828962,-0.4699581567782563,-0.6069683841374806,-0.3671881729862865,-0.13284730007537213,-0.40477154829939893,-0.27200805284497515,-0.39829696484324,-0.17753702940122737,-0.2674362258898607,-0.3778163245268849,-0.404120295975932,-0.3925181412490282,0.04708780862925632,-0.08810909806746829,-0.7977199290937373,-0.3606536757372763,-0.09577391478144981,-0.09538924822683989,-0.23125823281084626,-0.13146515422437277,0.007757569647600617,-0.47346218885337504,-0.41587400857035856,-0.32481138836519424,-0.5839023695195572,-0.4161138018239397,-0.5839764113872399,-0.5076054907891121,-0.40629127141912313,-0.36148875659368307,0
13.875,6.3,4.45,5.025,9.3,7.95,15.45,10.6,948.0,400.0,290.0,331.0,642.0,422.0,940.0,678.0,17.0,16.0,22.0,19.0,20.0,12.0,18.0,15.0,-0.7607954371604075,-0.49322738180431375,-0.3928500814968017,-0.21833170688547826,-0.6422693665385807,-0.36304572137532737,-0.6409169849054048,-0.404936966078622,-0.5293100067847104,-0.22891271666509883,-0.33890753954216185,-0.3024239960705922,-0.610711701840702,-0.5111996375987502,-0.5382548946919662,-0.4286286467196373,-0.7242865504732432,-0.5623438039289035,-0.35984997583813444,-0.20575632010711914,-0.13425014254786122,-0.41779288152851646,-0.16760631819722513,-0.26434083606518743,-0.485438721466305,-0.35062211844167807,-0.5919651626283985,-0.14941644721195188,-0.347795335036771,-0.06727519809726058,-0.4335586271810337,-0.13424048575035016,0
7.8,8.3,5.65,6.925,8.0,7.0,19.725,6.225,494.0,522.0,390.0,453.0,540.0,374.0,1237.0,378.0,19.0,16.0,21.0,19.0,19.0,17.0,15.0,18.0,-0.21917629255933702,-0.06269272376163582,0.020209577135135902,-0.0877084609308008,-0.4291414266741936,-0.41079502732256,-0.3956349026238618,-0.35423641985316745,-0.6546457541486684,-0.33960415149300016,-0.43854883820847734,-0.27385492919294796,-0.4721466867315804,-0.3886710956488404,-0.1962359775890013,-0.42533515311203474,-0.6001608835165205,-0.37009694903297974,-0.26249056032298,-0.3799554418524378,-0.24506360796137475,-0.3100552086102439,-0.4625987103833246,-0.15315417002254594,-0.39906191257144685,-0.22559541882868142,-0.46037366649515654,-0.10711580641337445,-0.31281969844162405,-0.2982719174513944,-0.2512581355821319,-0.3343802613410451,0
15.0,7.75,5.0,8.025,8.275,10.575,24.725,11.95,1063.0,439.0,293.0,480.0,580.0,693.0,1542.0,822.0,22.0,14.0,15.0,19.0,21.0,20.0,18.0,20.0,-0.7211089238473813,-0.4676075185666226,-0.26497802757147565,-0.22727089552614158,-0.29518288033500567,-0.46820059066539454,-0.10367829315512334,-0.38122372651649467,-0.2916950193684842,-0.2384762607210313,-0.10049695187400456,-0.338452431478836,-0.3104246979319916,0.10206655632103874,-0.15077565720542796,-0.16820309407719675,-0.6153937699576011,-0.29429112700808563,-0.36759021292837596,-0.22005900539875087,-0.5574415273805646,-0.2969806753797887,-0.5503826368332903,-0.4716290877977696,-0.38712349638243276,-0.3596081372798039,-0.14481517707667244,0.01707580517052094,-0.4474817834616044,-0.1546046671034716,0.0505859633552899,0.21609182521822332,0
25.5,9.85,7.175,12.625,12.5,17.4,38.625,19.575,1705.0,630.0,441.0,836.0,852.0,1089.0,2361.0,1353.0,18.0,20.0,15.0,16.0,19.0,15.0,20.0,18.0,-0.5363483476119901,-0.5007156535295634,-0.22427333813955538,-0.28600257134195445,-0.5318021509181377,-0.38135280447500014,-0.31752417918387943,-0.46455829232908125,-0.5168857431508797,-0.3632996603857619,-0.43601457786923387,-0.44403583498894106,-0.5674683390898488,-0.5499061242540755,-0.5741550493657003,-0.1479640408439912,-0.5702406934458149,-0.30334296433878066,-0.33450658317811977,-0.384051282910758,-0.3771567055833505,-0.13686602172103085,-0.21873653273419652,-0.17299412752366847,-0.38743960076472916,-0.29926676808538916,-0.11937826555354791,-0.2765927703678216,-0.4602533345178005,-0.40734105489596745,-0.0684349034822696,-0.36156237488713067,0
19.725,11.6,5.825,8.625,12.25,16.7,30.275,12.775,1388.0,798.0,375.0,575.0,884.0,1034.0,1740.0,697.0,19.0,20.0,17.0,14.0,19.0,17.0,16.0,15.0,-0.9627994331026186,-0.5999855621921745,-0.05055015693315691,0.012160421475032138,-0.5634516769086465,-0.045046821911544625,-0.4215394135385224,-0.41989902817670677,-0.3799205378444439,-0.07321937885884112,-0.2547673347197002,-0.3699351227483283,-0.45303317935967236,-0.3775272983929926,-0.24497083538358563,-0.2893017772784398,-0.9959117097802332,-0.7245401676602339,-0.3006215299610937,-0.05604293662104652,-0.30878278231117806,0.0068469175390937645,-0.11036061058490408,-0.01115925044215431,-0.2694028903495309,-0.10248253412628222,-0.28566321727487426,-0.5389077906615065,-0.04118075744461823,-0.27853157123534233,-0.0990555486590455,-0.2802296213653435,0
15.8,5.65,5.025,6.85,7.125,11.375,18.375,9.225,1108.0,324.0,340.0,411.0,454.0,710.0,1120.0,564.0,21.0,13.0,20.0,15.0,17.0,18.0,17.0,15.0,-0.6635089955789383,-0.3767630798708113,-0.29747986325392456,-0.3160131388295738,-0.3712077187958941,-0.08569895673239322,-0.19117605082194408,-0.19587830261520664,-0.7635287809597922,-0.5837889184737846,-0.2720926051833483,-0.045316447725795385,-0.5712788142183809,-0.4015194665921172,-0.401334791722024,-0.3990400437062074,-0.6282661701331126,-0.46157296372123247,-0.21920235341578395,-0.1992408249450125,-0.332595969391915,-0.04779875620601851,0.09069564783079177,0.030037465526294424,-0.363848060277016,-0.1891285915656425,-0.33332060513561096,-0.23706970413231732,-0.5352560502699591,-0.306986190608383,-0.24909298984405517,-0.15358827452928833,0
16.5,6.9,4.9,7.1,6.15,11.65,18.975,9.9,1079.0,421.0,350.0,443.0,372.0,724.0,1263.0,662.0,20.0,15.0,22.0,19.0,17.0,16.0,18.0,19.0,-0.3612208457391689,-0.12081735470918295,0.009190430258009386,-0.2457459074332205,-0.2974785696268512,0.03725523097025449,-0.22033111712323375,-0.1599205944880862,-0.630325639945508,-0.1609288319002838,-0.3359884818768763,-0.4109446880553947,-0.5395926747054144,-0.38966498282567236,-0.33521735543955955,-0.3280841789161641,-0.36132686497206934,-0.2100658444441845,-0.18065157024455442,-0.2973945567422841,-0.26745021413636,-0.4281577529568891,-0.16133075296034144,-0.46564493397019946,-0.5005292358593032,-0.2039144598384294,-0.20607479814823512,-0.3234766632251418,-0.6244310008948127,-0.42696271848580386,-0.586881404810991,-0.3346832485185984,0
17.475,8.5,5.2,6.85,7.975,12.9,27.9,12.5,1262.0,572.0,322.0,427.0,461.0,699.0,1654.0,800.0,20.0,17.0,14.0,17.0,13.0,14.0,14.0,18.0,-0.8398665880421957,-0.575513590498855,-0.5556544867411466,-0.3449316415299005,-0.4886161558213907,-0.13908410794745613,0.018775999285900586,-0.16582293533497058,-0.459081188296676,-0.1706780069859213,-0.273253848155667,-0.3318455785342928,-0.5020562240125774,-0.4240072521714048,-0.20531658500953767,-0.2557426805088717,-0.10271072029601219,-0.5033560457242726,-0.033621729343126544,-0.271791573250078,0.11307052515835679,-0.12307383512825071,0.008572787139754519,-0.420732465438575,-0.2675439142772879,-0.23365509876324628,-0.14899065804218392,-0.22713192627945042,-0.337656785719215,-0.4834536921338641,-0.26994477776396253,-0.2127027114801492,0
14.225,8.8,4.15,6.625,9.125,11.65,33.75,9.5,999.0,614.0,243.0,431.0,612.0,559.0,1880.0,574.0,21.0,19.0,16.0,19.0,18.0,9.0,13.0,19.0,-0.5780697077770081,-0.3659761642807656,-0.37494407453762485,-0.26498296841227087,-0.7114203804218406,-0.390531341524953,-0.3065745544170014,-0.20275413058261563,-0.21321082936704655,-0.2453492375071071,-0.17482783663812024,-0.2620237599614718,-0.38921864686951285,-0.17250853568317445,-0.23485716349514962,-0.33040088523226946,-0.6084685223404148,-0.3351044007344255,-0.21165843872297216,-0.30612688107561936,-0.02616620995988159,0.10819748533880921,-0.2683489111671146,-0.40477185561676765,-0.42472493955586754,-0.40263913770048626,-0.3867069107655226,-0.2920674114458838,-0.43996731072269346,-0.4454450050418429,-0.17476576444643532,-0.15641327260573443,0
14.775,7.9,4.275,6.2,9.8,11.675,25.625,11.7,1066.0,495.0,278.0,370.0,634.0,641.0,1526.0,790.0,21.0,17.0,18.0,13.0,21.0,11.0,13.0,19.0,-0.6668107837898921,-0.41517414325972696,-0.40723244516137075,-0.40612370632427275,-0.665299002716729,-0.5384026628515214,-0.19911539587955188,-0.1875924493737838,-0.37814133902841485,-0.06333090175648001,-0.13302631862594827,-0.16091321677287077,-0.202178344473929,0.08097496916165162,-0.1230280903519414,-0.2855303850559744,-0.6008908364993654,-0.2777004022476031,-0.11296958485204439,-0.043730417214395814,0.02434846837173465,-0.04652147490152924,-0.3454872217460953,-0.12518176511981705,-0.3245031646519502,-0.26940709901262055,-0.2683662705384336,-0.49196239617232546,-0.49078157501500547,-0.14856527917377074,-0.09276117284070487,-0.1682354393126958,0
12.75,7.15,3.375,5.8,7.425,7.75,18.875,10.65,868.0,467.0,175.0,347.0,504.0,405.0,1140.0,715.0,20.0,18.0,11.0,17.0,23.0,14.0,18.0,15.0,-0.6296843162275928,-0.22579137999635845,-0.19785037488866203,-0.16200673765015985,-0.31905186945636493,-0.29470434922899097,-0.42206459692056364,-0.16088803479717972,-0.03565922737924489,-0.16233636475359556,-0.09495322589661273,-0.10428575708830287,-0.42397525823916643,-0.2923645726582619,-0.5566781100584668,-0.18077870292209797,-0.7850325923277865,-0.4066080941203045,-0.00905684856468954,-0.04733869166543655,0.17478788646848148,-0.06331345198982573,0.0832413209731382,-0.037033605936070545,-0.2730643140129359,-0.2933226352164103,-0.2140943074662381,-0.3593682026639584,-0.33774009104285974,0.20342041162164337,-0.11117435666778425,-0.3131631925966953,0
14.6,7.9,3.425,4.45,6.675,7.825,25.575,9.275,1052.0,538.0,206.0,226.0,408.0,405.0,1529.0,574.0,21.0,23.0,15.0,13.0,16.0,14.0,16.0,18.0,-0.7411229494930485,-0.2942525582326544,-0.17575241704087216,-0.214918832908049,-0.44295625341823575,-0.1071469744008111,-0.06674365450144631,-0.12575036631905914,-0.37957820224618477,-0.1370424322763859,-0.06730794114282598,-0.1266676653027242,0.004272371584876381,-0.26747303387787563,-0.3498920805340855,0.08689515254324535,-0.7307774540335821,-0.48082300611399603,-0.5086985568979161,-0.37046446194047006,-0.015878849365178117,-0.27699190225041026,-0.12200506096456683,-0.473993910105705,-0.5962977671730798,-0.6196192993598371,-0.5664882341451892,-0.541743188335169,-0.16581769444077127,-0.08536027916110912,-0.44661026502048734,0.01920687807919693,0
12.775,7.05,4.5,3.975,6.125,8.15,20.775,8.0,905.0,463.0,291.0,225.0,411.0,518.0,1239.0,521.0,21.0,18.0,19.0,15.0,18.0,21.0,14.0,17.0,-0.7168828036282161,-0.3733494028788888,-0.3075026210366727,-0.16083405104101128,-0.46831168681675805,-0.26894551286158536,-0.0956492198181015,-0.06506135563226223,-0.5348245326173788,-0.39111388999735747,-0.3012673895181331,0.014727726534356127,-0.16578939565336018,-0.1206582248216949,0.03085984508814858,-0.020518575660503434,-0.7384549458690001,-0.5131701886024876,-0.3337496715031099,-0.28955038588656745,-0.47114581708215375,-0.1040497948861024,0.12573831192961524,-0.04309038808497239,-0.30235939573424986,-0.26664907891291545,-0.3227398499822384,-0.16432972034508206,-0.7824968096456522,-0.6082691001358593,-0.5273433173611972,-0.1980825802312201,0
11.975,10.55,6.55,4.525,7.55,6.875,18.275,8.375,873.0,629.0,456.0,259.0,499.0,426.0,1034.0,548.0,21.0,14.0,19.0,18.0,23.0,20.0,17.0,18.0,-0.7366234768709977,-0.4227164982829665,-0.2934150137416784,-0.22034231196042814,-0.27757621357058104,-0.3043751579575037,-0.20987071469553573,-0.12459488907520733,-0.7275550928625044,-0.489425188483612,-0.1475988915652385,-0.034152313600940044,-0.25070274546377547,-0.4480570182425722,-0.13287269489984604,0.006927257316381827,-0.6617270677547611,-0.3937994192264065,-0.10558658695484215,-0.08721739287339979,-0.2735742951419616,-0.19232539193565862,0.3409860003114532,0.004983912225294679,-0.35525723595547487,-0.2319306455258145,-0.5528237157283827,-0.5139895622937254,-0.5404475350470059,-0.5789773058688406,-0.22891435500876237,-0.29453792369106513,0
12.125,7.15,4.3,4.025,5.3,8.85,20.0,9.7,862.0,459.0,254.0,245.0,333.0,585.0,1088.0,613.0,20.0,15.0,15.0,14.0,15.0,20.0,16.0,19.0,-0.7252441899155107,-0.506493889748879,-0.26666019061331137,-0.18708198914455101,-0.37427485520152315,-0.20694027178434413,-0.31029688296470226,-0.25172825728283127,-0.38755757399497587,-0.51280124413235,-0.3220001062495635,-0.21488675602652352,-0.4464273762926442,-0.3324027760744139,-0.31776695348648215,-0.44974272677238913,-0.6017236247267532,-0.29646733066613845,-0.38263030466689757,-0.30672605511961964,-0.2824470902379674,-0.1167430344436178,0.1422498701643205,-0.35637993064031265,-0.38222224597247023,-0.33929994337052943,-0.401118231877165,-0.4061207903032648,-0.5059615415965485,-0.3582691173154543,0.038806493244409136,-0.016527905580013907,0
13.325,9.725,4.925,3.95,7.55,6.725,22.8,11.85,957.0,679.0,348.0,247.0,511.0,430.0,1421.0,826.0,17.0,17.0,20.0,19.0,20.0,15.0,17.0,21.0,-0.9445265948882362,-0.8475535368530397,-0.6572519225931568,-0.30782730969295785,-0.49431999273708743,-0.1776633401228226,-0.16838502549420722,-0.17707624067968084,-0.6220190541074858,-0.23559771876421315,-0.2565434417556902,-0.09950814020455452,-0.46361709630184716,-0.21386550894564718,-0.39248597254590756,-0.2206423667911507,-0.7627399609241261,-0.4855271936280683,-0.3172812765319302,-0.29205319643752187,-0.13463818709229727,-0.17776750168486805,-0.14499894135787036,0.012009564686946908,-0.5740294016533111,-0.39254226510249873,-0.276080412640203,-0.36552226037935487,-0.7302046570856252,-0.45646402785306445,-0.22492677787685372,-0.22105068875890893,0
18.6,10.05,4.725,3.6,9.025,6.95,18.625,12.85,1377.0,683.0,312.0,184.0,621.0,408.0,1164.0,859.0,19.0,20.0,15.0,12.0,22.0,10.0,16.0,19.0,-0.8310950633276694,-0.7106874887681459,-0.4889239993990246,-0.48670566704425877,-0.5849923515045975,-0.2506471079611776,-0.018216165845143732,-0.04557787842736811,-0.6545651524730927,-0.5133663500146937,-0.5471593084579673,-0.27713869611897934,-0.19082094758997242,-0.3361066391748219,-0.23790588329474052,-0.18687412188734687,-0.841448187973822,-0.5826319962233167,-0.46657375209245683,-0.4314110952407707,8.549878179105336e-05,-0.07529437447427362,0.008178710805477891,-0.5763499618479722,-0.4860038591073889,-0.3127215487707824,-0.3072856232535292,0.16853936415058213,-0.6612407707226032,-0.34516952322507743,-0.32327706795812694,-0.2535397831794836,0
15.175,7.725,4.625,6.475,9.775,12.6,36.15,16.625,1042.0,498.0,301.0,414.0,678.0,753.0,2162.0,1058.0,16.0,18.0,16.0,19.0,20.0,19.0,14.0,18.0,-0.6367766359312835,-0.3748078445960342,-0.5074230473062019,-0.5080816237305082,-0.7315350286144052,-0.4883114567699299,-0.6110676067744876,-0.29059328667378453,-0.428281937080256,-0.10716201469189561,-0.14865158608044912,-0.15320454694168797,-0.6852987658175327,-0.4555121164670877,-0.4866079421223565,-0.5002164477386444,-0.7885289524813107,-0.5778512852679298,-0.29100596177748395,-0.18720731543766517,-0.16794176088153412,0.08906761883459621,-0.11923400835359309,-0.25049380978938773,-0.5183308979747799,-0.2459437129518611,-0.4012168226149982,-0.32169651828839396,-0.23056566671314596,-0.2972559514552997,-0.20529656293989335,-0.3912731005181396,0
17.35,7.2,5.075,6.175,7.95,13.25,37.8,11.95,1207.0,477.0,315.0,391.0,479.0,773.0,2418.0,758.0,21.0,20.0,18.0,17.0,19.0,16.0,21.0,19.0,-0.6232776169583366,-0.26505837106588787,-0.41701113271508966,-0.24504795974450996,-0.7076153768551328,-0.3002838761981386,0.11335914792129806,0.17779697267805672,-0.44199940365997187,-0.16048369737032575,-0.2207254510496207,-0.16945028061707146,-0.5617593645982518,-0.7515489480631374,-0.4811460814476002,-0.4058288047137439,-0.3728692515507884,-0.09639820007281613,0.00908482402542541,-0.30999213095263306,-0.189448431465751,0.11425721316910988,-0.21418359444574156,-0.27487379851168486,-0.6097403254225926,-0.4956989395789853,-0.6525775718774902,-0.27102471999230954,-0.3043225981593181,-0.08043432084216676,-0.1527479837979998,-0.21922466268595114,0
12.675,6.825,5.1,5.5,6.875,8.525,31.375,11.575,814.0,469.0,350.0,364.0,450.0,463.0,2091.0,724.0,17.0,19.0,21.0,17.0,19.0,11.0,22.0,20.0,-0.5287633898541733,-0.31623026262468756,-0.3326844699111212,-0.24438940814953145,-0.38781505562960583,-0.29958837082844514,0.0836892669937822,-0.02704474140383501,-0.7331571219807688,-0.2948415172657955,-0.0858296298002871,-0.1297803535742826,-0.8190414968871207,-0.6578712664064488,-0.3891736559661736,-0.25988253363149455,-0.5507458665454126,-0.23670458228569727,-0.12783666972449878,-0.060441310016497614,-0.17313450666378863,-0.06070912679969555,-0.05301659513996949,-0.1333567385810627,-0.5884185584844531,-0.24589471972022306,-0.5366999324589029,-0.367714712065035,-0.41318690888056986,0.06784246495226794,-0.1363810242977603,-0.33047874074776123,0
26.175,19.475,9.325,12.85,13.95,18.0,46.725,16.925,1616.0,1171.0,636.0,848.0,906.0,1125.0,2746.0,944.0,19.0,15.0,17.0,16.0,17.0,14.0,16.0,18.0,-0.6117618833307696,-0.4395988506379444,-0.4101009103340793,-0.34682700766707064,-0.5258639283155832,-0.20213670037366377,-0.14899490034091264,-0.10776096611630875,-0.7367893859167403,-0.565908226572625,-0.6373686843383154,-0.29869565110713986,-0.6331183495737382,-0.3122147534843561,-0.5410959257669158,-0.5231146216967991,-0.30397519842542414,-0.019922125274280444,0.01308386000909788,-0.17642273529983768,-0.31690735632599254,-0.4676478123930267,-0.13576562355980598,-0.4676974497393214,-0.4858776848250905,-0.4688003749079986,-0.43206806840126066,-0.36470832507692724,-0.42474344032422773,-0.2448479797028305,-0.3056223429434692,-0.23626298653269703,0
26.425,39.8,12.55,13.975,19.65,24.025,63.95,21.975,1637.0,2708.0,826.0,919.0,1398.0,1567.0,3850.0,1464.0,18.0,18.0,12.0,21.0,23.0,22.0,19.0,20.0,-0.47720779770391364,-0.473710583007564,-0.12625316607342837,-0.09438527641262143,-0.6155481321405742,-0.18140513910443296,-0.051005491234778315,-0.11168621785584243,-0.6459877326873443,-0.4938497625062864,-0.36745817285878446,-0.08347874424377809,-0.4997474312637718,-0.40618758078466927,-0.13623881638461763,0.003083627180726302,-0.7129770591257186,-0.33733085021608844,-0.1481929284205302,-0.15802135874141077,-0.36517750787789843,-0.03717576706834621,0.0017024991611163363,-0.3146117929890953,-0.515191689270753,-0.27411017272339255,-0.34901106596303305,-0.26154781307806657,-0.44492694810874084,-0.3724880816493103,-0.4405229773352087,-0.32419639119083804,0
21.675,30.75,9.65,15.05,19.375,17.075,48.175,23.6,1467.0,1801.0,619.0,983.0,1216.0,1077.0,2681.0,1371.0,22.0,17.0,20.0,20.0,15.0,15.0,18.0,15.0,-0.5901694560831362,-0.2995833882868822,-0.10726406929718853,-0.3073353648697056,-0.2778154103402259,-0.24013613782486398,-0.3281090635108044,-0.12433011430886536,-0.445393716608429,-0.1594144201001207,-0.21761133847844835,-0.193761912141032,-0.5211457965212801,-0.6427026601504876,-0.418332545672594,-0.7044976433383681,-0.5272121271092494,-0.6404243921031187,-0.3110537492634634,-0.4229107279084457,-0.11965032734841374,0.039564305580827436,0.15657474356593584,-0.3551562169404268,-0.3404402860403408,-0.4708921900635314,-0.5064283124753914,-0.23391501622053473,-0.17746063459551978,-0.5924577161936521,-0.3546449207894189,-0.18409063085073316,0
18.85,26.875,14.475,20.4,14.675,22.375,31.75,15.675,1205.0,1724.0,1039.0,1481.0,926.0,1374.0,2067.0,1103.0,17.0,12.0,23.0,22.0,20.0,15.0,19.0,23.0,-0.5248866248238516,-0.430980293466953,-0.05097620883512029,-0.055260675396043395,-0.31471152571756555,-0.38466064143738554,-0.3106772728607056,-0.3429414466846838,-0.9786354769210679,-0.6306751800331946,-0.4460049192510224,-0.32296397971967084,-0.7164855233525087,-0.36862723070101666,-0.47665895355225724,-0.5099800445890119,-0.6964371528910701,-0.656008475070159,-0.4877042852469311,-0.3699515785184834,-0.5685718193708721,-0.29464211204875584,-0.18560386119855102,-0.35928650975054266,-0.580428402105881,-0.36314482669799486,-0.21215402551234527,-0.2653232324963266,-0.5934112649098686,-0.5451005727919143,-0.06319835669237996,-0.2951344136325013,0
20.0,22.225,9.9,13.675,12.725,18.175,39.725,15.2,1296.0,1482.0,680.0,936.0,825.0,1095.0,2592.0,1037.0,18.0,22.0,20.0,17.0,18.0,18.0,19.0,18.0,-0.7272999295034038,-0.6844483610109007,-0.5298798856131899,-0.2738154830580202,-0.45194079582758123,-0.39539466410671775,-0.33031416060916813,-0.24709731672366747,-0.825702291739172,-0.42057894807955576,-0.33004365393784735,0.010937670685766199,-0.8844975026780091,-0.6864238581429294,-0.6556028919966587,-0.3019557974248124,-0.5561911552625269,-0.6015742979583213,-0.228307784296998,-0.30044042472333626,-0.4996216025769945,-0.5129415269352822,-0.4071706130581291,-0.3202122771314819,-0.7668474680381662,-0.6742174889791108,-0.37471807691289,-0.29162779939293304,-0.6874937371337079,-0.3265105634041189,-0.10066959742078171,-0.03993553908106651,0
15.15,19.85,6.75,8.525,10.025,14.875,25.675,12.875,1025.0,1378.0,391.0,535.0,709.0,955.0,1624.0,825.0,20.0,18.0,20.0,15.0,19.0,20.0,19.0,21.0,-0.9656252161788353,-1.039236751487988,-0.6838331521639741,-0.34377600659206947,-0.6076694619172425,-0.4673990794135238,-0.3846816965205007,-0.483103669955792,-0.49277860631390924,-0.6442320911030225,-0.1854959878516251,-0.2365932028623758,-0.46113578846305364,-0.5817401129805201,-0.10491547669323635,-0.1262837668759287,-0.9644258018641255,-0.6998932128913383,-0.6899490206690749,-0.2806114397944758,-0.5105256326798522,-0.10816195020283749,-0.04090650849444255,-0.03177083684586168,-0.22690500976973635,-0.1944282046800563,-0.06091801381873063,-0.3533078844245598,-0.45353259919193023,-0.29406993369390855,-0.3751769519050688,-0.10360306253798876,0
19.275,20.6,7.1,9.25,12.675,13.2,26.575,13.125,1250.0,1277.0,498.0,609.0,845.0,893.0,1522.0,834.0,19.0,21.0,25.0,19.0,18.0,22.0,17.0,19.0,-0.6207550876945089,-0.4773031873307718,-0.3305659836557014,-0.1345173718716772,-0.6519577097252144,-0.6351147433145469,-0.3723177568290796,-0.33099535534828134,-0.979248660834581,-0.7914557764068912,-0.6154277545702226,-0.49061879292281374,-0.37420726737421495,-0.29617867488875843,-0.03294025110912853,-0.11092475952200204,-0.5398418719952087,-0.3061080775925249,-0.2161695081198406,-0.31569693261074294,-1.1401026125731395,-0.9220299851966782,-0.327624391271236,-0.13313928087172935,-0.12034947042042995,-0.17449795042396554,-0.3614246115117096,-0.11856524007144081,-0.4040416810724173,-0.2959688825780933,-0.3550296747628578,-0.0026856751080516087,0
23.4,17.825,7.5,10.95,12.275,19.225,40.175,18.55,1479.0,1007.0,484.0,577.0,810.0,1233.0,2368.0,1263.0,18.0,13.0,17.0,12.0,20.0,19.0,18.0,16.0,-0.5587843173398979,-0.5485367531012657,-0.6439936076873282,-0.12529954128449527,-0.20245143544503186,-0.3539750290278957,-0.290384629539687,0.06091268246877433,-0.4053657108066054,-0.25559524980019316,0.07026432923104507,0.015884865288716923,-0.020346676271291646,-0.353514879643028,-0.30583669711049216,-0.23054276534399015,-0.40904737012063924,-0.17651727617077026,-0.22383510430139314,-0.19333630402446586,-0.3819611570688394,-0.22709875785858588,-0.17989352786195864,-0.2406614941058855,-0.3185672513977193,-0.3175385293854111,-0.40153572950076855,-0.15115104017300762,-0.5971233691596954,-0.257327148720919,-0.11400622102221346,0.02241451441904229,0
21.575,19.775,8.85,14.775,15.375,25.225,53.125,18.775,1353.0,1212.0,609.0,943.0,1061.0,1552.0,2861.0,1194.0,19.0,17.0,21.0,20.0,19.0,16.0,16.0,11.0,-0.6398318195236926,-0.6692847347541375,-0.4565938399778912,-0.4065578837314774,-0.3466991189411965,-0.3939922696215084,-0.4214772617551089,-0.145280415459214,-0.7069623232825863,-0.45510939113573134,-0.31466339378033253,-0.3004013523491137,-0.41156014585878464,-0.22231052472396126,-0.4235270416305332,-0.3026009783673893,-0.5772277824670154,-0.1705560284903984,-0.27352269353285397,-0.26847017217299507,-0.31163579348965664,-0.3412698315310151,-0.2929607058752236,-0.3123570080303308,-0.24753821924484504,-0.526448624246398,-0.2113901976838606,-0.3596710808543968,-0.38823685859531,-0.4160279246676333,-0.24479115758048112,-0.2965060780334326,0
16.875,28.95,9.325,15.75,16.45,21.375,56.025,20.7,1237.0,2008.0,631.0,1063.0,1037.0,1339.0,3028.0,1392.0,21.0,22.0,20.0,18.0,16.0,14.0,15.0,20.0,-0.684185458350646,-0.3378783515055431,-0.015606910135383347,0.27606999936088766,-0.4444645928261551,-0.34514553597809894,-0.12301811798081849,-0.4158007431730089,-0.5353265742957661,-0.14989459154821472,-0.2284514665166002,-0.178390282846508,-0.34874226399529445,-0.36113965068009807,-0.17408578844110462,-0.32121317576422853,-0.5407136788720729,-0.31741964624727814,-0.31207466722111626,-0.313476264814282,-0.2442504988957337,-0.22987282218289876,-0.15943263747977696,-0.2214912838126706,-0.3625897264497648,-0.6004081965191512,-0.1935551451373804,-0.4155446613218724,-0.4516451715640202,-0.19809853158076324,-0.04295430600672302,-0.1514491114657275,0
14.875,16.425,7.725,10.375,13.325,18.825,44.3,17.775,988.0,1055.0,514.0,694.0,840.0,1161.0,2558.0,1238.0,17.0,16.0,19.0,17.0,22.0,18.0,18.0,20.0,-0.5111452928580831,-0.32768255656431444,-0.2511916028349851,-0.13707157485768579,-0.26030840580700365,-0.23921074778479365,0.01103349914310252,-0.18986431400898973,-0.5955068113167038,-0.2073421978157451,0.09474834213901005,0.09958500259152964,-0.4739186912735115,-0.28119597292700055,-0.32823979856052526,-0.33742039509673527,-0.6706994747172337,-0.4251193687658715,-0.3880940722778492,-0.12046667240279962,-0.19684891516299705,-0.18435478727273016,-0.2779717176258705,-0.24098463466133227,-0.257694840755809,-0.6322198791830108,-0.177774799615358,-0.3601368717919766,-0.5819272521185872,-0.29174430177306704,-0.046732390029476066,0.09919965103843949,0
17.275,15.625,6.95,7.45,11.65,16.475,25.7,13.75,1194.0,996.0,493.0,498.0,794.0,1022.0,1585.0,830.0,19.0,16.0,21.0,18.0,21.0,20.0,20.0,17.0,-0.6844661969998687,-0.43231625277184366,-0.2828356646787421,-0.3186354838899469,-0.6457802084935247,-0.5922154024540414,-0.5515661294736792,-0.587961485775016,-0.5803316626973946,-0.2422634517935156,-0.3096572653504542,-0.22743337058296703,-0.5327378970366441,-0.46599046186814896,-0.5981185363002778,-0.31623584178990405,-0.8046754983921826,-1.0101385523421653,-0.6025147943104388,-0.4468426579199064,-0.43114648454506127,-0.4341494973551376,-0.22646960269649108,-0.352605151578831,-0.6803892698182376,-0.7840520020552356,-0.2622193297904719,-0.1484407135260524,-0.39449165728378194,-0.23505929312518944,-0.16398662277096054,-0.2230637522098412,0
14.625,13.95,5.4,7.5,14.425,15.55,25.275,10.95,1023.0,894.0,360.0,495.0,994.0,900.0,1658.0,605.0,21.0,14.0,16.0,20.0,16.0,15.0,18.0,13.0,-0.6180932512480523,-0.42104478058669176,-0.3974505955241923,-0.41742504536829134,-0.5121698797267561,-0.4483580147835144,-0.46871170083642105,-0.2319397421476168,-0.5812804788541225,-0.3209969428929522,-0.28680354962733773,-0.37761413308838954,-0.40486198358272346,-0.5094613053470982,-0.2757873031964605,-0.17987187967958365,-0.7807095607005354,-0.5734927757118301,-0.507827269795243,-0.3219125300152782,-0.4175868756639525,-0.4358342433340967,-0.3298341570240589,-0.3711344201624525,-0.609572957976818,-0.5314626692677401,-0.2165019065762115,-0.21519781305018315,-0.38366660630169125,-0.38160554942877306,-0.34097187907059906,-0.08936200061119562,0
16.55,13.525,6.325,8.25,9.775,15.575,34.05,15.05,1210.0,953.0,456.0,603.0,632.0,1008.0,2264.0,914.0,21.0,24.0,22.0,21.0,20.0,20.0,20.0,16.0,-0.9465899416967546,-0.7224024541526969,-0.5230081835341487,-0.2662520959307595,-0.7205708749162537,-0.20896360125023689,-0.36895971995745874,-0.2782056173664942,-0.6187604012331738,-0.04580083571185727,0.041307346445156524,-0.13993260344369648,-0.6978089170805537,-0.3864291479841972,-0.3365579780337621,-0.13893338080535775,-0.5967467217189423,-0.6507620459121819,-0.24687175195519537,-0.2554875170954626,-0.6516224920621806,-0.46761064722259366,-0.35654125034727624,-0.29286010972806376,-0.6175898188324728,-0.3633320446676537,-0.4464028326426063,-0.45936769560745633,-0.7398972515770366,-0.7556759274362208,-0.7260159054019506,-0.44078145348269454,0
20.15,13.025,7.1,6.05,11.725,8.275,21.35,12.7,1432.0,911.0,504.0,372.0,789.0,508.0,1358.0,794.0,20.0,22.0,20.0,19.0,20.0,20.0,15.0,18.0,-0.8164827307959154,-0.6209197488457013,-0.46901211297031525,-0.22495300095966592,-0.5604653318890356,-0.21956717445647936,-0.47821380404372377,-0.4107319040705816,-0.6865450935691466,-0.45307005163229197,-0.43524757367625433,-0.4865315081073265,-0.35030348309203185,-0.050863474018006005,-0.245006599729371,-0.11974313573466287,-0.5758209417773551,-0.3227679620423951,-0.39008228622824725,-0.4368453514651044,-0.20815765154174742,-0.1374851310922878,-0.07039267672641167,-0.1328875658033388,-0.6395120669200002,-0.7100581431025569,-0.6106499826637444,-0.4921782972700162,-0.3761149840993225,-0.23452145257781984,-0.2836810102301006,-0.2582457525937433,0
13.475,11.35,6.075,5.225,6.525,9.175,18.525,10.275,866.0,724.0,379.0,323.0,418.0,595.0,1039.0,699.0,21.0,17.0,19.0,16.0,18.0,15.0,12.0,17.0,-0.4324242091953194,-0.1682472660363613,-0.14875307146864006,-0.17135857242024322,-0.5993797765996972,-0.21261969853590745,-0.15692610151689768,-0.03737728007794786,-0.6241954772154039,-0.49180016203527593,-0.32073139600942474,-0.4403492744648371,-0.27987518473623374,-0.2093739290356388,-0.2135123998648941,-0.015384338976508987,-0.37120191751046616,-0.2584233273651065,-0.12388413695497744,-0.33159445096742995,-0.2545553977479975,0.09511466977434598,-0.11701789361086673,-0.16495861847902987,-0.25835705825196376,-0.35209571480898866,-0.4092207558724418,-0.28886981666973194,-0.3344405369282531,-0.14575046565737085,-0.19684501197901066,-0.1649939366585963,0
15.0,11.125,4.975,7.4,7.675,12.125,21.0,11.625,1084.0,697.0,310.0,478.0,552.0,844.0,1314.0,725.0,20.0,12.0,18.0,16.0,19.0,16.0,12.0,17.0,-0.7112679147365876,-0.4070877159043618,-0.27893902318872776,-0.31561341659566194,-0.4358341570066547,-0.112838867098614,-0.237625567007205,-0.31884990710700956,-0.4201515720307878,-0.29454816482748725,0.10419132034408131,-0.15216237984084643,-0.5775538693813881,-0.5211362379704295,-0.47791716496038206,-0.19563111594234567,-0.8894474393604384,-0.6132251596992543,-0.4855121367484823,-0.18051222101461317,-0.5618392988346835,-0.33740413646206024,-0.2759076649781154,-0.3664834138010982,-0.30903700840819703,-0.3321946543863493,-0.3684734288513591,-0.41045604115919887,-0.293495137951564,0.0009288561464420433,-0.05299690907264042,-0.08353047115615761,0
10.325,10.375,5.7,5.625,6.225,11.15,25.6,9.525,709.0,622.0,382.0,321.0,370.0,571.0,1427.0,565.0,20.0,18.0,18.0,15.0,16.0,11.0,10.0,17.0,-0.6820698304243386,-0.47607138035367763,-0.3774850439911666,-0.261655561951159,-0.2626997686016073,-0.3495505091566711,-0.1754422971870666,-0.22911499839980376,-0.6645459946015506,-0.5546743285947953,-0.34811776836329883,-0.350270628052731,-0.33532529404174766,-0.2553325868846258,-0.05901925932594204,0.03191238652687042,-0.2738207116272993,0.02282480950220162,0.0015029947893960747,-0.18398299655415906,-0.16259400772724572,-0.1188141214439679,-0.2793372067878807,-0.563507435220025,-0.21875968911209762,-0.22812017202737733,-0.33256427947652606,-0.4796552928030518,-0.22032999558155467,-0.008714916674858991,0.00564256336194573,0.20732284425056013,0
8.3,10.125,5.925,6.475,8.15,10.475,27.8,7.125,569.0,641.0,373.0,401.0,582.0,581.0,1770.0,412.0,18.0,18.0,19.0,14.0,23.0,14.0,16.0,14.0,-0.6374885138025452,-0.4373834933980355,-0.1831782669885365,-0.39143907846067494,-0.3165649729253273,-0.10780818764323362,-0.24255510492097096,-0.0156180203586208,-0.5046734552620686,-0.41407113996036476,-0.33776588070683894,-0.0901842123558904,-0.4853195091822185,-0.4581676678083847,-0.4487368861663474,-0.27260090215935134,-0.6840726089263521,-0.17694492861491173,-0.3237405690177141,-0.3444699728959238,-0.1164788968995396,-0.10042143485524876,-0.1731330247669246,-0.6762672810371042,-0.40825024891271916,-0.1668727404645816,-0.39855962712997584,-0.5017280385737977,-0.10397109807637647,-0.6523109538611316,-0.012882734686328263,-0.27001449827323665,0
8.05,7.8,5.0,5.05,5.775,8.45,21.55,9.175,525.0,495.0,329.0,295.0,343.0,468.0,1373.0,634.0,15.0,14.0,16.0,16.0,15.0,12.0,12.0,18.0,-0.5744674805868235,-0.40547001164820834,-0.2632085909629514,-0.4259430493739709,-0.3752055109937183,-0.19411952376240652,-0.2023030002142366,-0.24576922535060278,-0.7888569536157974,-0.5941191873221053,-0.5007487726539549,-0.35318747723621985,-0.5287962829828227,-0.41960229748629807,-0.5542524964507587,-0.2506438032363157,-0.3869905941545256,-0.22804133942348348,-0.5771986936396323,-0.28371570038546434,0.18293092637600503,-0.42358914677954,0.055976053964514216,-0.5478323857870534,-0.16609505924960247,-0.3268509357036241,-0.023870936586381446,-0.1679062327504967,-0.530841878698438,-0.3235085295346407,-0.3206748642481999,-0.1870027360460251,0
14.05,12.075,6.4,5.5,7.425,13.625,27.8,11.0,997.0,809.0,405.0,365.0,477.0,893.0,1559.0,680.0,18.0,18.0,20.0,18.0,17.0,21.0,9.0,11.0,-0.7482013978424561,-0.4022348527234762,-0.3303260962846653,-0.33879285253154245,-0.7374501147997351,-0.5314348587868872,-0.46988741714129517,-0.331292872222253,-0.6071510217563312,-0.5527603324231999,-0.23407124994574904,-0.22396541770483666,-0.6233517343719082,-0.5572625534860352,-0.5032428592243617,-0.5767592018610268,-0.5017335296799716,-0.3638112146399449,-0.47257365810473045,-0.4334446479547281,-0.35691228940864206,-0.03709660130969677,-0.09946530892852884,-0.44324931007774176,-0.041409675810729574,-0.19443579462047011,-0.30193867847225864,-0.17637055393715326,-0.22061125250326274,-0.08202750493101336,-0.34831818165948103,-0.23589091377866203,0
16.05,10.925,5.55,4.5,6.7,15.025,23.35,12.2,1093.0,737.0,346.0,268.0,435.0,979.0,1518.0,827.0,22.0,21.0,19.0,16.0,19.0,20.0,20.0,22.0,-0.625877471444904,-0.4356754529045577,-0.19263986839550998,-0.27831313835195404,-0.7104239195759513,-0.498753181230752,-0.312009188929827,-0.11272081652357041,-0.5647399425306311,-0.5367472180476597,-0.3527543661846266,-0.2109609675104709,-0.350098558469945,-0.2010159991849073,-0.17709969754076552,-0.3741921654513419,-0.4657392850084635,-0.5026940003868907,-0.29635368783264937,-0.4182728035220915,-0.4752638806297465,-0.1419922811310012,-0.05611463440499215,-0.2219613980380445,-0.5760730963933416,-0.2354764033215985,-0.4555694024062928,-0.3304774507263902,-0.5702623471870625,-0.22937272630593875,-0.05821831219347997,-0.1310512417738011,0
17.25,10.875,4.6,3.875,4.35,12.125,25.025,10.225,1256.0,627.0,311.0,247.0,280.0,753.0,1673.0,685.0,20.0,16.0,19.0,16.0,21.0,15.0,18.0,16.0,-0.6722604653430391,-0.3767773728235152,-0.19190723354767206,-0.3455634988480319,-0.29432806572147163,-0.22662434275893092,-0.27214086355234,-0.3103681919129789,-0.4635489445093499,-0.22514870469034995,0.029016506849294334,-0.021681061947840724,-0.24469748758017096,-0.041704167955753574,-0.11372417560858247,-0.5973548946847783,-0.47261734063933036,-0.28257496299060064,0.013924005490740481,-0.14883361930740246,-0.22815235040802803,-0.1679756168275998,-0.09818502701760445,-0.36575716820179915,-0.5957353468261214,-0.40113994515521706,-0.4619255812345056,-0.29570630701266437,-0.46821265699952125,-0.35120573688002893,-0.11796277735721294,-0.252076625527231,0
15.175,8.9,5.025,3.6,6.85,9.875,22.15,7.0,1102.0,520.0,333.0,209.0,464.0,580.0,1474.0,442.0,20.0,16.0,21.0,12.0,18.0,10.0,19.0,16.0,-0.6885398081154913,-0.21618583416818354,-0.30368950051884186,-0.29851054381011227,-0.2796100576504918,-0.2983930148906235,-0.37981341675324903,-0.09276863343522612,-0.3190878367916484,0.09202253958218808,-0.0889327374949742,0.03698369375197803,-0.13079080757717323,-0.531372019916888,-0.13013006185619685,-0.258960229997297,-0.5531397082539171,-0.47952260747225406,-0.12461903796468987,-0.161612739857606,-0.07362034380367961,-0.02653801684385556,-0.3177586220580278,-0.04377355619623547,-0.46275719524813563,-0.15257345361595542,-0.49891008957822236,-0.23986124283562835,-0.3963276771299643,-0.28040057628845594,-0.3615001078078104,-0.06805123256371899,0
11.2,9.95,6.1,3.725,6.625,12.475,23.75,8.475,784.0,642.0,391.0,232.0,381.0,624.0,1180.0,542.0,21.0,19.0,16.0,13.0,15.0,10.0,10.0,12.0,-0.8285655278801543,-0.5797135732806334,-0.4287797871343126,-0.15634636581590822,-0.4211331136630244,-0.15188153654533149,-0.24339529567400098,-0.2499558033423912,-0.5480074578599506,-0.4862331047075933,-0.37102041421738186,-0.2856491275751188,-0.20560115761369102,-0.029123058453540053,-0.2875932867984457,-0.0644404285131338,-0.21495582965494492,-0.13536337786194091,-0.2613877845716392,-0.27587709505607344,0.03666471098576737,-0.03259457374092166,-0.372800375323132,-0.2646357595329182,-0.017112641480025427,-0.22844146362839865,-0.26643335220499786,-0.4230309330571587,-0.3907735655593032,-0.5695029412261742,-0.3373829674552957,-0.3068829069419474,0
11.15,9.8,6.675,4.05,5.45,8.425,23.15,12.6,806.0,648.0,444.0,275.0,320.0,453.0,1377.0,901.0,17.0,14.0,21.0,19.0,14.0,16.0,14.0,24.0,-0.9884259035951327,-0.7192757903951171,-0.49318433780057525,-0.2869715988832025,-0.6082214260431609,-0.25010424441614365,-0.13267704003465328,-0.3532405821309525,-0.5149179491171231,-0.23370651999108943,-0.13320334149677837,-0.30215088916732785,-0.5467563596693639,-0.004385885441578996,0.25299781399234367,0.11654806092828435,-0.2616888764212395,-0.10935557090556695,-0.02651429810682809,-0.28654593300792464,-0.02518936121372768,-0.3953232892717499,0.01915874200790894,-0.19892728332229656,-0.6223746624529272,-0.5760616663125812,-0.5737583836195722,-0.4858589487040124,-0.6637968175660086,-0.39606867715976085,-0.38778630593882496,-0.42506273151734325,0
9.35,8.65,6.225,3.5,5.825,12.1,21.975,11.7,664.0,531.0,417.0,215.0,390.0,765.0,1564.0,819.0,17.0,18.0,20.0,13.0,21.0,17.0,21.0,18.0,-0.8059940034384524,-0.43378670167845207,-0.32291741833757315,-0.19605126559691316,-0.3208681840966825,-0.24564330514728172,-0.21055687725659952,-0.33660331197605453,-0.7455557978874044,-0.5421752781541752,-0.28600852311347524,-0.20134007518216765,-0.14326367510893043,-0.28173664799210174,0.03391530840199821,-0.05610457891822745,-0.4564232918140137,-0.23470323033769233,0.024064323009915282,-0.25006664147830393,-0.46822806908703296,-0.42585897942441187,-0.46856682572799857,-0.19865230333160852,-0.7566581078248813,-0.5672148142687861,-0.3381195599453345,-0.27228309739571704,-0.6534539107775266,-0.38690956183873215,-0.1734444075345886,-0.2344970580262229,0
7.875,10.4,4.875,3.775,5.575,11.275,21.55,8.775,547.0,762.0,322.0,240.0,347.0,733.0,1447.0,603.0,20.0,22.0,19.0,17.0,17.0,19.0,19.0,21.0,-0.7158893096913648,-0.5636470797306531,-0.5028200200624875,-0.5029629296736858,-0.446286511042252,-0.04769957764895016,-0.2719923606699829,-0.2652371396225116,-0.4900198046072532,-0.29878533998284706,-0.11947864499927095,-0.060898315945662314,-0.4930236628036375,-0.3590966408504077,-0.34390595964099163,-0.373312705146447,-0.49734350495546564,-0.19624521443574375,-0.20527640778507844,-0.1569158174205283,-0.38033886909839865,0.11129858287933862,-0.06627056128123951,-0.22042480730930702,-0.5585820223421717,-0.23853868937437475,-0.3866838700972051,-0.43470906104929935,-0.42579414782289937,-0.33250782552181657,-0.11486089071816333,-0.4699156115471938,0
6.975,9.2,4.1,4.475,6.05,11.05,23.7,11.575,476.0,605.0,281.0,290.0,389.0,617.0,1484.0,763.0,15.0,17.0,19.0,18.0,16.0,14.0,18.0,20.0,-0.8478771804484198,-0.666550645489982,-0.6131068918565533,-0.35152036901065314,-0.5450554062605621,-0.2659134723543002,-0.24706930626563045,-0.23524394303923482,-0.6082167078111557,-0.15623890209061533,0.09573570107954202,0.2834106586930394,-0.6005608246628553,-0.5543158511816367,-0.40846489145899983,-0.5374888122247561,-0.5868822869289941,-0.3168221251963264,-0.45738894896615395,-0.41002752395590947,-0.37998430787869064,-0.35026274893020354,-0.3800066194531097,-0.46536177164898507,-0.5609066125437573,-0.4052357061183881,-0.5179760600774647,-0.43415334949227247,-0.44303448521340844,-0.37692928998034253,-0.01109787575303962,-0.3446376814641736,0
6.275,9.675,5.05,3.7,5.725,9.325,24.05,8.35,430.0,535.0,315.0,248.0,391.0,509.0,1512.0,489.0,19.0,13.0,19.0,14.0,22.0,13.0,17.0,15.0,-0.5750942436754135,-0.4799988823216154,-0.15197913619822215,-0.2607216745216374,-0.09786751544237066,-0.08320601006975356,-0.4014348196562675,0.20198329987977703,-0.4849872387818278,-0.2165269695554482,-0.2976814910067492,-0.31695181324348515,-0.36899926126201793,-0.21237398964464713,-0.18923829732822467,-0.3611366867834253,-0.694581878186721,-0.45745310943358214,-0.3254167313972401,-0.3486040217663181,-0.3317706487900144,-0.45646407235386827,-0.24042848608878792,-0.327484234378212,-0.28435193906302303,-0.42036264209693563,-0.1399008530614326,-0.44008352109369564,-0.25253653936847953,-0.19933501177153787,-0.14328659631438495,-0.15008368143410253,0
8.8,9.025,4.85,5.5,5.8,8.85,19.675,9.475,580.0,560.0,298.0,347.0,383.0,583.0,1325.0,566.0,20.0,16.0,16.0,18.0,19.0,17.0,14.0,21.0,-0.5183619829479574,-0.15987917369076396,0.06850088177837921,-0.007619489155060626,-0.4870883832257186,-0.39613950854796043,-0.5337158178979325,-0.035452409146439455,-0.4146935354385146,-0.3171985528604094,-0.3520309195888502,-0.28850310888634145,-0.4466555691139764,-0.4431726228186059,-0.15704377921737298,-0.26373889595805977,-0.9434639702422463,-0.7209386276823893,-0.500560476213551,-0.30158144844374446,-0.36028249010930885,-0.5449241931583967,-0.04316439128857831,0.08886566072935388,-0.3417140207603239,-0.09013216134785784,-0.358377030934717,-0.2239939500132843,-0.4494791594660603,-0.3494070988336131,-0.39585276675330283,-0.12248567741485554,0
7.725,8.9,4.05,4.825,7.575,11.425,24.4,9.275,555.0,552.0,263.0,333.0,532.0,762.0,1661.0,582.0,20.0,17.0,17.0,18.0,19.0,19.0,21.0,17.0,-0.7091237462830182,-0.4008260172785385,-0.3177761421583419,-0.3786246707349086,-0.6660326293665678,-0.6600276507308415,-0.5587884932631013,-0.3271983004937655,-0.514626238469246,-0.3418077250971221,-0.2602304972235464,-0.0510388440162376,-0.5755828005397872,-0.30920712387315274,-0.36034636506399287,-0.3831475214748455,-1.282973971193839,-1.1998550440006965,-0.7333074033199322,-0.23513065415259016,-0.4829575307521082,-0.7687115918049499,-0.2643510353667687,-0.378565277708714,-0.8763156961963796,-0.669964933551144,-0.5276692077083538,-0.31151826897283447,-0.47145104718345965,-0.3335229692771076,-0.051202293110402294,0.054050505899002226,0
7.65,7.925,5.15,7.0,6.975,8.7,25.5,9.925,487.0,477.0,328.0,443.0,495.0,494.0,1575.0,566.0,18.0,16.0,19.0,15.0,20.0,16.0,15.0,12.0,-0.46678147844554063,-0.2984932643021943,-0.39081705869240196,-0.3102031829305595,-0.33918723106641563,-0.23231193607180814,-0.3742704686503942,-0.40057618195760447,-0.5857029603147594,-0.5570888791088838,-0.51878658695381,-0.44119785248277454,-0.4352285732833679,-0.5736250963033492,-0.3964841193290422,-0.5642139551885179,-0.6306243641374417,-0.38148703999957145,-0.0899553525833834,0.0022242622583777895,-0.21800996453544536,-0.5302257633647924,-0.15362843449930297,-0.3880223962076814,-0.45444221200473633,-0.4328062043269497,-0.37004269846788773,-0.3573951463551289,-0.2457607595747716,-0.20213337086868252,-0.22969481990338111,-0.3993442048337636,0
15.55,11.875,8.375,5.925,8.775,14.575,34.325,13.775,1100.0,754.0,501.0,379.0,549.0,942.0,2015.0,845.0,22.0,18.0,19.0,16.0,19.0,18.0,16.0,18.0,-0.8895735299982251,-0.6412183723718674,-0.7542740070987185,-0.2118646555329213,-0.4708308073268195,-0.2826379344203441,-0.3213749454902886,-0.25522569944857476,-0.2823039041194941,-0.1855686014664588,-0.5191283697813696,-0.10723546781141567,-0.4469827509163831,-0.4707471397348018,-0.3785718933683176,-0.22093252833310004,-0.5098408661640885,-0.555289427652905,-0.41077801964047855,-0.3982245426563108,-0.4878996330655602,-0.30812297698802565,-0.6678108781880552,-0.2748160835608847,-0.6869207627685067,-0.607389661667996,-0.5700722689194416,-0.3802019044434245,-0.2689993889289003,-0.17076932585801544,-0.2946110978692958,-0.09843780703855741,0
40.675,37.875,15.975,23.55,17.325,39.25,67.15,29.95,2610.0,2328.0,1061.0,1432.0,846.0,2601.0,3880.0,1931.0,22.0,15.0,21.0,18.0,16.0,18.0,18.0,22.0,-0.5783103740726794,-0.15954365060180498,-0.12097639508189928,-0.0349238762938488,-0.3260148294617388,-0.39395658271295325,-0.30787341964628656,-0.4677698454347694,-0.7612111447882032,-0.5134801921614174,-0.2223554800319167,-0.09549730790179622,-0.7898552680125188,-0.5869722976582009,-0.7988142085273006,-0.5770726349279295,-0.2730013979859342,-0.5661864197726193,-0.4200806258650691,-0.4587200471272231,-0.3550361450046121,-0.2479162450893968,-0.10067556928554384,-0.5177791333541925,-0.17470183878465373,-0.2431803775577815,-0.025260696411974568,-0.39823880796825606,-0.4171790045517839,-0.20080154735656966,0.009429873398508202,-0.16122154786761544,0
32.425,44.8,15.0,18.925,25.25,37.35,58.025,26.425,2171.0,2649.0,990.0,1158.0,1659.0,2634.0,3592.0,1803.0,18.0,17.0,20.0,19.0,23.0,23.0,19.0,21.0,-0.6746394970294489,-0.3909684802437775,-0.4584737594957563,-0.4067951525462812,-0.27962135162826846,-0.3218366345188152,-0.37217019331581075,-0.4205275372622267,-0.5884227746453964,-0.3956907248729166,-0.3023381836863761,-0.29823592783465125,-0.3700611872492604,-0.25541910887917496,-0.34254450368426226,-0.398871283708367,-0.5024697942382093,-0.24001129194211912,-0.24185838095206041,-0.2563344197709565,-0.6437534050500455,-0.2208602699474498,-0.21545577028834326,0.03798105433480087,-0.3226461117239073,-0.048808942193151655,-0.149557467813596,-0.10889842718148063,-0.670369812377586,-0.44358621894720157,-0.383638503746029,-0.158353639143891,0
25.25,37.475,11.575,17.8,20.95,37.525,52.9,27.75,1608.0,2641.0,716.0,1159.0,1444.0,2739.0,3642.0,1893.0,17.0,18.0,19.0,23.0,19.0,21.0,20.0,20.0,-0.7619217597038185,-0.486170422245616,-0.2693261961408926,-0.19783168361775424,-0.5964855573786932,-0.29603957936024844,-0.37919542342739226,-0.33189847518931165,-0.4191212855209604,-0.0018254575559805393,-0.16902128109028064,-0.059204856692698746,-0.5494306558109532,-0.41896351693655165,-0.5353890224701153,-0.5601506854824423,-0.5650522669721036,-0.2937041021835692,-0.3174956854399371,-0.2070408104082823,-0.6392210122355102,-0.03270125060675655,-0.32419933384517385,-0.26313949367343364,-0.4142637668983772,-0.017665500675587965,-0.017189492955340783,-0.24079274679232465,-0.7778833544649267,-0.5753361626952935,-0.5850412354094588,-0.3898214110971463,0
23.775,29.05,9.175,12.025,12.95,20.45,37.675,17.0,1579.0,1705.0,602.0,749.0,726.0,1455.0,2537.0,1071.0,19.0,12.0,16.0,17.0,14.0,18.0,17.0,19.0,-0.5401900418726394,-0.14700921822823138,-0.33234151240023185,-0.4525899973179647,-0.19430072217757607,-0.16399572624416306,-0.034157639741176846,-0.027219603724812157,-0.3321396741136631,-0.03393514003284563,0.04033111750169164,0.04313056800798546,-0.479007911204507,-0.5325174219405737,-0.3807119504823044,-0.502552184689465,-0.5915924341646938,-0.7080307647504951,-0.6280566800441765,-0.3782766338258215,-0.33060224481131834,-0.05170702564685904,-0.15420105074543936,-0.26421399320192673,-0.749983479070702,-0.41941310632342677,-0.43991077186768623,-0.17980215559586904,-0.4152241473641753,-0.22240498389225755,-0.4017017442947495,-0.26168742774652076,0
19.975,23.625,8.15,12.8,12.65,16.7,35.7,13.025,1249.0,1280.0,493.0,885.0,777.0,1107.0,2393.0,846.0,16.0,16.0,15.0,20.0,17.0,21.0,22.0,18.0,-0.623044786237843,-0.34510609581618473,-0.39480745380431553,-0.5315620331208085,0.014410874228763674,-0.03794408431144797,-0.23929524769900112,-0.04836474739533496,-0.14065264052999746,-0.2371016739555638,-0.2219579925165407,-0.23915745269089214,-0.8758110127044272,-0.8003073474654427,-0.7034946853291677,-0.5618873527633659,-0.606066923803325,-0.4807412136796555,-0.4052615616273248,-0.3831689472686903,-0.3462312848673058,-0.13804097688969777,-0.12830954306013215,-0.5181102643346623,-0.9100609751344009,-0.7123733005705802,-0.6473925780976664,-0.27459700395155523,-0.5625658014139443,-0.7651079408178653,-0.26907815417488307,-0.1100626337966483,0
22.5,23.75,8.6,12.425,12.0,18.2,37.725,14.175,1576.0,1531.0,570.0,873.0,790.0,1038.0,2562.0,981.0,20.0,18.0,20.0,19.0,18.0,16.0,17.0,21.0,-0.8315151459039902,-0.5602586161359011,-0.5156877932828982,-0.39462838218253266,-0.5531863141374083,-0.23813732808186494,-0.2584163816426018,-0.3286694305740854,-0.419549537852457,-0.22316002668594662,-0.31817788115646883,-0.31891009773844325,-0.5875681163414096,-0.2298127286776784,-0.2915226297092602,-0.43886801174860235,-0.6630685837712064,-0.3714669918409621,-0.489017404542489,-0.5841258027847255,-0.25375529757984766,0.013119345080328935,-0.31980580800123604,-0.3592613370894684,-0.7386099848517336,-0.3829331361303119,-0.4303112443940437,-0.21389277742160417,-0.8048611315776086,-0.6452568097839224,-0.2377887101334049,0.023683997808280958,0
18.65,19.975,7.0,11.275,10.975,19.0,34.45,14.125,1236.0,1281.0,484.0,792.0,678.0,1249.0,2224.0,986.0,19.0,19.0,19.0,21.0,14.0,21.0,20.0,17.0,-0.6795035128744442,-0.3619873825882214,-0.4468960309750649,-0.3731730122253145,-0.15036199524185517,-0.008412328764547372,-0.3428566022839528,0.016931408927394486,-0.5545741630330481,-0.2777139996849782,-0.3701691007303865,-0.19860978918192493,-0.6780812512707334,-0.31709765606194684,-0.40854437793582987,-0.45282141329904313,-0.389914476519362,-0.3646357337631258,-0.2996157218530944,-0.3579607174982651,-0.3829886692042032,-0.23373436231038705,-0.15825047600126452,-0.3660415085473512,-0.5267801257383111,-0.3712589128122371,-0.15446874166379015,0.009016356175718204,-0.7423090196609422,-0.46830265618140304,-0.17056330399795552,-0.01342512884862642,0
16.2,24.25,6.975,7.425,10.8,16.175,38.5,17.775,1107.0,1497.0,463.0,506.0,736.0,1050.0,2539.0,1156.0,20.0,17.0,15.0,20.0,24.0,19.0,20.0,21.0,-0.8076492998188641,-0.4970975580083113,-0.5915348557450298,-0.4556416417769433,-0.28776821903105065,-0.43464744524621185,-0.27871597739579757,-0.22310974166989042,-0.2954695982376433,0.06461673641981368,-0.041836695942624534,-0.19472554082798832,-0.5798330423557512,-0.16288182329394957,-0.2659076102544871,-0.17596916770108956,-0.47875661729120955,-0.22460015335749664,-0.5135028441574603,-0.15570960939789197,-0.4514757072501959,-0.3671802658072338,-0.05717927857156571,-0.32491783735081786,-0.5677896068874819,-0.4344796519768275,-0.332188905641932,-0.4503169036514473,-0.7077233625453914,-0.5144460113929661,-0.2564075079933782,-0.1437215569800257,0
22.0,20.1,8.375,9.25,10.275,16.95,40.85,16.375,1495.0,1216.0,540.0,577.0,692.0,1097.0,2523.0,1092.0,21.0,19.0,15.0,19.0,19.0,18.0,17.0,21.0,-0.9123958443594342,-0.687112807821097,-0.38824960806141556,-0.24125946595429185,-0.3714936336937653,-0.4498807596656032,-0.1792656924851344,-0.26840028418686535,-0.3563039465391658,-0.0831751279377753,-0.13776975090723892,-0.19225282947458744,-0.7521328700771105,-0.6299995978734444,-0.6296838272085307,-0.5767420236718052,-0.5969004850105908,-0.23386285220630992,-0.256301118547321,-0.29409957235112694,-0.3320475793457278,-0.41045010512211305,-0.07994024289097997,-0.09911818159895804,-0.492672195910109,-0.5071542839652403,-0.3413770503709229,-0.5118807836983138,-0.5488198376189989,-0.26778475789757145,-0.010236606977755549,-0.169051107046972,0
13.625,16.1,7.05,6.125,7.325,13.6,25.8,12.625,835.0,1005.0,437.0,385.0,457.0,884.0,1563.0,853.0,18.0,18.0,18.0,15.0,20.0,21.0,16.0,17.0,-0.38110489828937993,-0.4120019391711736,-0.24789948257003774,-0.19109798246465198,-0.3350736695431255,-0.06410426699943093,0.20396544025685734,-0.267947516373886,-0.35786667477098244,-0.25527059756515585,-0.21293037753540484,-0.1544644866580092,-0.28665171866462125,-0.2960673399463349,-0.3311517291737018,-0.27377687000142187,-0.5162463575360353,-0.27189838396522586,0.09682230663068887,0.1399704241457773,-0.3155333483495897,-0.5267834888718955,-0.17786271698390152,-0.17534271030728898,-0.5234376653371373,-0.13158448792234717,-0.48967553479284426,-0.6348820586255683,-0.5896571478909199,-0.3182165995451914,-0.3932111205563972,-0.3671518407867365,0
20.2,19.925,7.95,6.55,11.425,10.95,21.0,9.45,1323.0,1293.0,523.0,389.0,774.0,739.0,1232.0,621.0,18.0,19.0,19.0,16.0,19.0,18.0,17.0,21.0,-0.6321585047689886,-0.5490977971540559,-0.07319966987469317,-0.15838380694207324,-0.34768488982932566,-0.2076622717924459,-0.14231377073187063,-0.4061030528895537,-0.5628031251198251,-0.26213289140718016,-0.20757402043838116,-0.2745675834864879,-0.24246971465114578,-0.06169935629366052,-0.5137449719270134,-0.09687236244966337,-1.273557240760881,-1.0778920703107637,-0.7659704081108345,-0.2944753044326906,-0.37457249141656057,-0.008469179944743901,0.07500084782927886,-0.18367718214295045,-0.4502486731748151,-0.5419636128994197,-0.2840713326001198,-0.4971875624676587,-0.5190850652836244,-0.4132575904259827,-0.275550351328478,0.03634614417953865,0
17.275,21.475,6.95,6.3,8.3,14.75,28.2,14.4,1259.0,1308.0,409.0,403.0,479.0,978.0,1873.0,998.0,18.0,14.0,15.0,13.0,16.0,17.0,18.0,21.0,-0.7356093215105775,-0.5412777651591384,-0.17827375119767072,-0.1118730820022207,-0.19308837573367618,-0.23322193474917377,-0.19729233700153767,-0.32136097078063147,-0.4600422766751088,-0.4246119822632661,-0.35203300857603786,-0.2617486859231877,-0.40099576548108956,-0.2808979558193132,-0.5253999178136247,-0.010529010820179839,-0.3901819063625135,-0.41058374504843015,-0.46363814495468825,-0.08398869654506318,-0.6637833560477561,-0.40880203560759587,-0.21467658158037947,-0.33549966470895337,-0.8133006976303151,-0.5210422886522675,-0.43349595300188837,-0.33239236267831157,-0.5763675204176312,-0.2046604258576587,-0.19613691830958688,-0.3122330682769701,0
22.475,13.9,6.925,4.325,6.825,13.575,25.1,13.7,1585.0,828.0,466.0,253.0,430.0,778.0,1634.0,878.0,22.0,18.0,19.0,15.0,19.0,14.0,16.0,22.0,-0.7414846727774903,-0.4702559042845439,-0.3914100544814797,-0.3666166704858568,-0.33256069513722136,-0.2974200662600451,-0.13146827853566298,-0.03139581854399702,-0.5962020883939656,-0.4218371044380385,-0.08869534631877445,-0.27208360256161407,-0.380619604447056,-0.35280470072100395,-0.3605708324719388,-0.1411507148682628,-0.5257960712233302,-0.5857270518592597,-0.47102946768930465,-0.5577784720198702,-0.40711931833981896,-0.357200659077608,-0.13954614389680495,-0.3030570176691214,-0.4758457636889965,-0.3357007924702834,-0.3442249194691249,-0.47000756488404993,-0.46917372132983987,-0.3427227968733127,-0.25218610143264497,-0.3795770881231821,0
16.625,19.2,6.075,6.175,7.975,15.275,27.65,14.45,1170.0,1169.0,402.0,427.0,521.0,821.0,1607.0,960.0,19.0,19.0,22.0,21.0,18.0,17.0,15.0,20.0,-0.8246058243991669,-0.5143480557942541,-0.3394086679310713,-0.2435625004151681,-0.4396319388562564,-0.2928638474421808,-0.20045333720556233,-0.35940148896602164,-0.2850015676628979,0.2669514060259855,0.007110234961538504,-0.26017208460314256,-0.5844884172758688,-0.43025392123647244,-0.43046774659840614,-0.15593284537815563,-0.39338050615279996,-0.22602229877648108,0.17930893781472224,-0.33878956146025674,-0.1111770217412142,-0.3653450513355616,-0.3115607634370386,-0.3800711000649453,-0.38966283108038896,-0.4320737510368791,-0.395093831943768,-0.4834092027594623,-0.6305621542560831,-0.49890271755539345,-0.24890723284629426,-0.23997766871485252,0
20.225,16.275,5.35,5.125,9.7,15.125,28.15,13.475,1402.0,1005.0,363.0,325.0,636.0,895.0,1822.0,887.0,24.0,17.0,17.0,20.0,19.0,13.0,19.0,14.0,-0.7496562309285948,-0.41443668796048744,-0.21278650959952544,-0.05187647640200519,-0.40540470589011957,-0.4869416483811604,-0.41302351807499244,-0.45007392444142935,-0.36955847737667175,-0.19263506119332524,-0.28277154050281317,-0.26661919460287975,-0.24385149908232207,-0.39065627724731655,-0.1638566598970967,-0.19750031558169742,-0.42620639423311374,-0.19244454112229506,-0.3422377715862924,-0.0004314724523107995,-0.20287162395863023,-0.30823421582229305,-0.28663179528379096,-0.14188828819613514,-0.6038677429260937,-0.34989838123714606,-0.37502663740364867,0.02232401688603544,-0.5090222938764034,-0.2624301101871014,-0.32181442047638675,-0.15506293919866582,0
19.2,14.225,7.325,6.35,9.5,18.0,27.3,14.85,1259.0,936.0,482.0,392.0,569.0,1110.0,1572.0,869.0,17.0,17.0,22.0,14.0,19.0,19.0,13.0,17.0,-0.6974323782293395,-0.559371253977407,-0.4429954935168322,-0.4133842839396134,-0.40536095822669277,-0.3934430460229902,-0.07891635185334278,-0.2654346669005925,-0.5078929082844277,-0.03661036847809275,-0.1085286386658442,-0.21162185975178757,-0.40447977602447843,-0.11270392684467054,-0.20505672257357743,-0.16359209149255646,-0.5384809976840611,-0.4656458249431128,-0.11042992059084843,-0.07385893788813487,-0.323399223629863,-0.5880005348917239,-0.2230343910761354,-0.4871677632139389,-0.5227670627846934,-0.4754786267441263,-0.4216237408111061,-0.21644288834419476,-0.4286861679206857,-0.3261716750589316,-0.30404833252764024,-0.471688807705859,0
14.425,16.675,8.425,9.3,9.05,18.275,22.0,12.825,944.0,1068.0,542.0,585.0,530.0,1101.0,1356.0,813.0,18.0,15.0,15.0,21.0,16.0,16.0,14.0,19.0,-0.7021374232251767,-0.5084127228039018,-0.42682438063406536,-0.18902110737914518,-0.5122252400849412,-0.4040294915253718,-0.24888401796851345,-0.23442951179189817,-0.6192356257044236,-0.2531492265383128,-0.491216897490637,-0.6456660939809562,-0.4034263996538252,-0.04125261851046633,-0.24114395840888192,-0.3473371798196968,-0.26547916014116196,-0.36784511704129924,-0.03538440315679585,-0.33553993644963326,-0.12616219144568852,-0.490678229803497,-0.049387774028874266,-0.31613742827039837,-0.33451107576816597,-0.47486674514392213,-0.22418634296666382,-0.47855211942207443,-0.38226786164909266,-0.23375142675416022,-0.2479462131117683,-0.5426505668638528,0
18.2,14.975,7.825,8.125,11.85,18.475,24.75,12.225,1256.0,898.0,487.0,485.0,812.0,1173.0,1695.0,852.0,21.0,17.0,19.0,15.0,23.0,17.0,22.0,23.0,-0.6866746270110237,-0.46130859527562,-0.36299094143503563,-0.17873962119177522,-0.24320082403521723,-0.32643710984759733,-0.2167885995392399,-0.2942518208761518,-0.6163120868815285,-0.4267038755980318,-0.3370663488043004,-0.08033093342552451,-0.2657817741783461,-0.09740833969588494,-0.21470394826637026,0.07418145506153535,-0.5342138600239871,-0.24560456244051426,-0.10984128829709386,-0.4333577949001858,-0.3163130318624669,-0.10934434741586495,-0.16209406155571476,-0.2775919048762466,-0.643361604308249,-0.2643164354270732,-0.17830419613711895,-0.21819286145875424,-0.4546037018188328,0.06188024837282092,-0.01744886961324298,-0.30306901748768145,0
13.625,12.75,5.65,8.275,11.275,12.2,28.3,13.2,864.0,740.0,334.0,518.0,774.0,684.0,1854.0,862.0,17.0,17.0,16.0,16.0,18.0,15.0,15.0,19.0,-0.4622469280878076,-0.48452305279104657,-0.10541597600191463,-0.09471127807242083,-0.28537918266889595,-0.04719074888680447,-0.07511225149364799,-0.01259590905957978,-0.2770985559250459,-0.26859455976433116,-0.16299720753390853,0.06765639562313784,-0.4638586164562426,-0.29913745995532426,-0.4323093273705376,-0.04977814440805696,-0.6566641185130642,-0.3132644825768954,0.010024270797099206,-0.11135770713577728,-0.009218273952934774,-0.3975903803530214,0.018039629564203744,-0.2496574492646444,-0.6474987932093609,-0.5815478826656089,-0.6023739613348902,-0.30763975751184763,-0.5406814704081063,-0.34762005146663655,-0.3810226512944834,-0.2992960427488867,0
16.125,16.45,6.925,8.125,7.375,13.15,28.375,10.575,1047.0,1070.0,479.0,516.0,502.0,719.0,1583.0,611.0,18.0,21.0,20.0,16.0,20.0,16.0,17.0,15.0,-0.5710632066146692,-0.49794483901783226,-0.23348698238178475,-0.1844089734036629,-0.4639083240684728,-0.22141139282140096,-0.22165240794953547,-0.3207898369007509,-0.6487784231380946,-0.3462001284022037,-0.03358181668284368,-0.06795262726730922,-0.5939269046473186,-0.3614695853974617,-0.09019913732327767,-0.10736017777456534,-0.4196951785551372,-0.2705719436158979,-0.12005715135781087,-0.2190326038327361,-0.10917725532593699,0.028514675071016016,-0.2722379523980416,-0.23212758894754257,-0.1603897500330435,-0.10103609747265978,-0.2873310512585486,-0.26480740664658864,-0.37618662061358094,-0.20624819309968448,-0.10800091758475892,-0.03721739592752845,0
13.975,16.225,6.375,7.0,6.675,16.725,32.75,10.925,906.0,1118.0,421.0,409.0,406.0,893.0,1850.0,532.0,17.0,19.0,19.0,11.0,15.0,17.0,16.0,12.0,-0.5334688133321158,-0.3715252704339359,-0.31045917353092095,-0.3269330168046903,-0.8159937724813251,-0.5149785806849289,-0.033201076157829544,-0.13998735785240923,-0.5129519198934401,-0.31214719508714933,0.034621037883658036,-0.14737807059230845,-0.322358165783714,-0.3098590850824529,-0.09195061597245674,-0.27322493781175694,-0.07476713463481202,-0.3804047094848307,0.04737235435330672,-0.28345224822165427,-0.054550646399126414,-0.08853459869710624,-0.009549259597743508,-0.44777149997014304,-0.2321679034386349,-0.15191046638187386,-0.3438920328211998,-0.3328915735296717,0.12551376071120038,-0.3029724031389841,-0.12100997884955908,-0.0728617903716401,0
18.575,21.1,6.1,5.9,9.25,18.2,33.8,11.325,1246.0,1525.0,404.0,366.0,572.0,1095.0,2056.0,687.0,22.0,21.0,16.0,15.0,22.0,18.0,14.0,17.0,-0.5203775899774202,-0.0666950998324694,-0.37900844657090266,-0.43102952027104113,-0.8552029320471068,-0.6304060405962729,-0.22346961300032092,-0.23732194693362507,-0.6561814005888668,-0.47542760232405973,-0.5040755695630098,-0.3986644492427764,-0.2834115803537394,-0.18207488326789564,-0.3795358435050512,-0.3117109983506003,-0.3360049544645237,-0.300244507565369,-0.15201511358056924,-0.2540265651198265,-0.29373458832221877,-0.29989098072831605,-0.2582369578539048,-0.31855546323375045,-0.33130336386809905,-0.5071947192944725,-0.211828665322963,-0.3473230343527266,-0.15970929249206683,-0.31523503177844614,-0.23531670138834257,-0.2867116879498589,0
16.25,13.95,7.1,4.8,11.225,15.375,38.75,15.275,1006.0,914.0,472.0,276.0,792.0,1090.0,2462.0,1023.0,16.0,16.0,14.0,13.0,21.0,17.0,18.0,20.0,-0.4968586044768905,-0.7762515902163981,-0.2677057227929396,-0.3969482940553038,-0.28054761554858293,-0.12113602576898913,0.14332659655395288,0.043143259333537506,-0.5421119155288867,-0.2816544386932681,-0.22458754536352932,-0.2625721453002193,-0.09738605539634466,-0.20508367093636484,-0.07844395858590109,-0.05995535134052433,-0.5789320768737151,-0.1300790814231511,-0.44511618638310474,-0.4292005078760078,-0.38327149506548547,-0.07981936657491663,-0.17742850200624805,-0.45735961730382263,-0.4389807620958123,-0.3172648308074066,-0.05099600895504463,-0.35027510055415784,-0.6086164797098214,-0.2430755918202584,-0.23620900393490515,-0.25120845345125903,0
15.15,14.625,5.35,4.75,13.15,10.65,35.575,17.325,1027.0,846.0,340.0,308.0,963.0,571.0,2211.0,1171.0,19.0,18.0,14.0,16.0,20.0,13.0,20.0,24.0,-0.625461433965159,-0.5196464081180396,-0.16301348063366441,-0.18599721788161014,-0.2437483256314833,-0.5397541355568167,-0.24027662711911488,-0.3942746737399623,-0.27767448629730945,-0.20938100237579338,-0.015991185754263636,0.03359394640228965,-0.47820007699679623,-0.2553001452944069,-0.42956825557869843,-0.17268893862519483,-0.8531719336175145,-0.6499142615192036,-0.676062042038483,-0.57019614986663,0.04168813325478344,-0.3815332628562282,-0.019973957588452926,-0.37405345420132746,-0.3752318418260248,-0.13226645906494822,-0.44712489886418966,-0.300145963229945,-0.4801059912843509,-0.11362029041029625,-0.249845776276494,-0.18499957246162968,0
17.925,12.325,6.675,6.475,10.225,15.375,31.95,12.9,1170.0,834.0,469.0,387.0,664.0,882.0,2087.0,761.0,21.0,21.0,21.0,16.0,20.0,17.0,20.0,16.0,-0.6897412487854798,-0.7224980863373679,-0.5791774342301105,-0.6571213477673598,-0.4746303720346838,-0.1582283138041126,-0.19309092347538326,0.05943181076665002,-0.5279251673070193,-0.1732185298149022,-0.07048118169038955,0.04947664016236334,-0.5617413410184823,-0.4774398675736324,-0.5170378701667475,-0.39868328071316256,-0.6567266872287856,-0.4112474180268179,-0.4450300289353727,-0.44745744038694607,-0.33277313709331235,-0.30007729750199824,-0.17591072534808883,-0.2772691248971135,-0.5267458897896069,-0.22060551570884668,-0.43969009525279396,-0.28567492356165536,-0.2716672537683036,-0.1490842138967069,-0.2202032578346417,-0.17071821838196916,0
17.55,18.525,7.35,7.35,10.9,14.25,30.9,16.25,1234.0,1204.0,479.0,498.0,765.0,893.0,2020.0,1114.0,18.0,17.0,20.0,18.0,22.0,22.0,18.0,23.0,-0.8364441418652423,-0.9180303699748535,-0.3625133369631432,-0.393523732827168,-0.7192019165494916,-0.5650821370960574,-0.5494659403555522,-0.4185354788391339,-0.7542768739647642,-0.4981719584364937,-0.3451169749640307,-0.34034871487203466,-0.6951130823912207,-0.494828853133389,-0.5008658437182832,-0.3164741976465777,-0.467045897149504,-0.10697924292214793,-0.3978221176690349,-0.031753991463671916,-0.29709274922210077,-0.3764377294868607,-0.25879346831406486,-0.26534884071993836,-0.6684451824338474,-0.23314760501615567,-0.17400782916189222,-0.07793286205488667,-0.49771256308779466,-0.338292466719154,-0.190766042194076,-0.21279733144588545,0
16.325,14.625,8.775,13.6,9.375,15.25,37.475,16.825,1121.0,965.0,597.0,869.0,611.0,968.0,2468.0,1151.0,18.0,22.0,19.0,18.0,19.0,14.0,18.0,16.0,-0.625133880787966,-0.47673407357297426,-0.4732208478989111,-0.0102929526090297,-0.5975370656167837,-0.33096821657740727,-0.5711031327893162,-0.16787830750684815,-0.7724354940833359,-0.2994393774712897,-0.3689603777922575,-0.39588160335740513,-0.625276245768136,-0.5151460384430865,-0.680057784789764,-0.4537295308111875,-0.5394843495606214,-0.3100653626042144,-0.3333883666765737,-0.34480611565964797,-0.4870005244448654,-0.4862918504378649,-0.4896261423642108,-0.29644540009258435,-0.5706604326921743,-0.5947535652534905,-0.31585848476525846,-0.3547428936548794,-0.883369928393372,-0.5649720685717304,-0.3354853422447172,-0.18128104813796547,0
19.875,19.675,8.25,10.475,10.2,17.25,35.225,21.375,1324.0,1327.0,593.0,605.0,706.0,1064.0,2093.0,1407.0,19.0,19.0,21.0,12.0,16.0,19.0,15.0,20.0,-0.6616868519269273,-0.433341413185954,-0.4420271157769041,-0.23458009905666133,-0.8185206447202149,-0.7478466439348894,-0.49864344374201625,-0.3565186934229554,-0.6495205213806176,-0.27038890875128,-0.2659565057496583,-0.5419121381989808,-0.3536987682346183,-0.6066489345779992,-0.4786937001953621,-0.4739016412300413,-0.6122671985300915,-0.2946115884421658,-0.2687926001468734,-0.4047764024445514,-0.32224074604138575,-0.22122840890927836,-0.44335728870400176,-0.10936281859107407,-0.5003251200339459,-0.4718690791986651,-0.683763047240324,-0.33071107353782186,-0.5391623141331435,-0.13861678179901632,-0.40364333231284133,-0.22607973301526993,0
17.2,11.875,6.325,6.525,10.125,15.8,28.1,16.45,1257.0,739.0,445.0,422.0,689.0,915.0,1590.0,1139.0,20.0,17.0,20.0,16.0,18.0,10.0,16.0,20.0,-0.7793865752963933,-0.3143705877937719,-0.48933556043218607,-0.5630503304866187,-0.44413011437887895,-0.28162922394725837,-0.40464662113683014,-0.20792571570039203,-0.601498882709665,-0.15619155325361775,-0.3562573735269553,-0.41457129509931784,-0.4212400167004249,-0.131210811682422,-0.4532393874775046,-0.40122721182828236,-0.8373832920844153,-0.6602965308051459,-0.5893092691511198,-0.5578567454980049,-0.2209614516834001,0.022422020285538247,-0.2035804083269733,-0.2942887620294578,-0.3247056350502742,-0.4813642660256139,-0.31072095208665074,-0.14463439257917682,-0.6903163228991037,-0.29769521663610843,-0.1808427045840315,-0.16171991608056754,0
8.525,11.275,5.05,7.125,13.125,14.325,34.925,16.8,624.0,667.0,316.0,382.0,783.0,646.0,1904.0,1069.0,20.0,17.0,15.0,15.0,18.0,11.0,15.0,20.0,-0.8157530257545382,-0.5922294377080937,-0.3367466957870622,-0.2252630745308927,-0.44612856447688587,-0.44841794445926836,-0.44592680708353016,-0.20516810356106144,-0.5862548253464258,-0.24116974472400565,-0.27916041093019706,-0.33679797251190974,-0.19842791048925565,-0.5478780681358014,-0.22533036372866788,-0.3349709668425478,-0.6903593554799168,-0.5707475276309879,-0.5861748048778576,-0.5713006400369374,0.016749183764802115,-0.054948188834431706,-0.4783617999845459,-0.13475438586139352,-0.16561317872846215,-0.5176748038810152,-0.2259459444922231,-0.33820339804712146,-0.4409850201469813,-0.35050893649359977,-0.35225570879011636,-0.347118084288061,0
12.775,9.325,5.125,8.025,8.925,13.125,32.575,14.425,907.0,613.0,317.0,550.0,521.0,844.0,1924.0,797.0,22.0,20.0,14.0,19.0,17.0,17.0,17.0,15.0,-0.9211521336394654,-0.5951134352984739,-0.4959526181319245,-0.27744355995378445,-0.520742628068039,-0.42609601325860075,-0.0575891093986008,0.10276055577593983,-0.6307277370789302,-0.4930137903067447,-0.5452583926102128,-0.42745830577287525,-0.5068938081040701,-0.24637175981750753,-0.27677178057199264,-0.4246458119868672,-0.33730905379877696,-0.38855976388129726,-0.30015356321039344,-0.26923387224773077,-0.30284328708289854,-0.18829001185510408,-0.19282995133373598,-0.3829021171134039,-0.29521388317264896,-0.183695929809002,-0.4628204991829005,-0.062116246161200234,-0.17402191166089379,0.046100350072305604,-0.37904360117882974,-0.1624379967273868,0
